0
0.5395045389438863
0.537204333435454
0.532093042549632
0.5241193915547298
0.5131673739135776
0.4993867806435684
0.4829530801653964
0.46403953168706025
0.44281718520386376
0.41945488149841675
0.3941192521406336
0.36698910802378754
0.3382986913734854
0.3082944669715157
0.27722069038697444
0.24531940797626256
0.2128304568830859
0.17999146503845612
0.14703785116068996
0.1142028247554088
0.08171738611553984
0.049805780423276186
0.018671805420204055
-0.01148752362171869
-0.04047740064323235
-0.06811855376657777
-0.09433286032179575
-0.11907388450928393
-0.14229908165254784
-0.1639717794729736
-0.18406117808982816
-0.20254781880551365
-0.21944008912690657
-0.23475776718795954
-0.24852650352052486
-0.2607778210543356
-0.27154911511700563
-0.2808836534340298
-0.28883057612878366
-0.2954448957225238
-0.30078749713438746
-0.3049199392755608
-0.30788873468774103
-0.3097410071445931
-0.3105297528176209
-0.31031384027620884
-0.30915801048762265
-0.30713287681700857
-0.30431492502739393
-0.3007865132796869
-0.2966358721326761
-0.2919547925597047
-0.28683162037430193
-0.2813582268615142
-0.275632158725214
-0.2697199718404015
-0.2636503117266033
-0.25745498231596753
-0.25116261355493325
-0.2447986614042307
-0.23838540783888124
-0.2319498579746796
-0.22554771704481896
-0.21923955686620233
-0.21308277527023908
-0.20713159610262952
-0.20143706922336507
-0.19604707050672843
-0.1910063018412931
-0.18635629112992394
-0.18213539228977668
-0.17836836467877557
-0.175034671377426
-0.17209995974953002
-0.16952670317272897
-0.16727420103895552
-0.16529857875443332
-0.16355278773967727
-0.16198660542949295
-0.16054663527297752
-0.15917630673351882
-0.1578258095920976
-0.15648237660762188
-0.15514024217627398
-0.15379046670917107
-0.15242093663172127
-0.1510252261168927
-0.149656446180158
-0.14834284894238556
-0.1471044381372826
-0.1459614447431196
-0.14492933639169633
-0.14400357425764085
-0.1431747195808183
-0.14243356084519548
-0.1417711137793025
-0.14117862135623235
-0.14064755379364158
-0.14016960855374938
-0.1397367103433382
-0.13934101111375355
-0.13897520057843646
-0.13863346111965336
-0.13831052484498807
-0.13800135110799905
-0.13770112650680785
-0.13740526488409907
-0.1371094073271205
-0.13680942216768313
-0.1365014049821608
-0.13618167859149058
-0.1358460070027357
-0.13548718491968575
-0.13509742185834384
-0.13466915457914339
-0.134195047087081
-0.13366799063171608
-0.13308110370717133
-0.13242773205213257
-0.1317014486498486
-0.13089605372813148
-0.13001190853016686
-0.12907435915033574
-0.12811054566316657
-0.1271506048844836
-0.12622526293141711
-0.1253652598521623
-0.12460134962597935
-0.123964300163194
-0.12348489330519691
-0.12319392482444387
-0.12310709333757569
-0.12317847671659386
-0.12334645467670538
-0.12354942085994942
-0.12372578283943082
-0.12381396211931914
-0.12375239413484915
-0.12347952825232111
-0.12293382776910014
-0.12205376991361659
-0.12079760090788905
-0.11920427826944945
-0.1173333759270532
-0.11524448174744188
-0.11299719752842247
-0.11065113899886728
-0.10826593581871331
-0.10590123157896326
-0.10361668380168453
-0.10147196394001011
-0.09951125901750608
-0.09771536575736917
-0.0960488830693998
-0.09447642378777493
-0.09296261467773642
-0.0914720964355916
-0.08996952368871253
-0.08841956499553684
-0.0867869028455672
-0.08503623365937138
-0.08314176297080245
-0.08111661362431763
-0.07898388447883806
-0.07676668832933108
-0.07448815190182902
-0.07217141585342962
-0.06983963477229559
-0.06751597717765484
-0.06522362551980061
-0.06298577618009107
-0.06082178045937358
-0.05873516882307384
-0.05672542473468759
-0.054792045586343846
-0.05293454270123682
-0.05115244133362576
-0.04944528066883511
-0.04781253677252682
-0.046250647799632845
-0.04475818797429794
-0.04332947947614072
-0.04193366203121277
-0.040533411007073666
-0.03909140653625215
-0.03757033352083786
-0.03593288163248142
-0.034141745312394486
-0.03215962377134947
-0.02994922098967993
-0.027473245717280177
-0.024708725078380213
-0.02169160079325682
-0.018472972556064268
-0.015103944843148974
-0.011635626900417998
-0.008119132743339492
-0.0046055811569425745
-0.0011460956958170374
0.002208195315885996
0.005406158784454799
0.008409581415706989
0.011233523549285874
0.013906768116693863
0.016458093311636626
0.018916272558258597
0.02131007451114356
0.023668263055314283
0.02601959730623258
0.028392831609799163
0.03081671554235428
0.03331302447529333
0.03587475903432146
0.03848749242999112
0.041136793094965
0.04380822469234447
0.04648734611567046
0.049159711488922515
0.0518108701665194
0.054426366733319166
0.05699174100461865
0.059495916599072635
0.06194182146949402
0.06433599856751808
0.06668498607988275
0.06899531742376486
0.0712735212467803
0.07352612142698392
0.07575963707287
0.07798058252337135
0.08019546734786032
0.08240911399195881
0.08461937446694244
0.08682229347753434
0.08901391095624732
0.09119026206603305
0.09334737720028238
0.09548128198282528
0.09758799726793091
0.0996635391403071
0.10170391891510093
0.10370468448078046
0.10565947706837744
0.10756144024065162
0.10940371278998
0.1111794287391785
0.11288171734150211
0.11450370308064503
0.1160385056707403
0.11747924005636019
0.11881901641251591
0.12005412429279942
0.12119407183708598
0.1222517945603806
0.12324022321458641
0.12417228378204556
0.1250608974755396
0.1259189807382889
0.12675944524395283
0.1275951978966299
0.12843914083085783
0.1292995045874377
0.13016510511698948
0.13101970811511704
0.13184723058462783
0.13263272874152857
0.1333616716285001
0.1340195497293614
0.1345918749690691
0.1350641807137181
0.1354220217705404
0.13565470891473558
0.13576712998330512
0.13576824386646216
0.1356670309051299
0.13547249288136928
0.13519365301837924
0.1348395559804964
0.13441926787319525
0.13394187624308812
0.13341649007792522
0.13285036225351346
0.13224293467204332
0.1315916285966239
0.13089388672612687
0.1301471732005614
0.12934897360107478
0.12849679494995178
0.1275881657106157
0.12662063578762683
0.12559177652668377
0.12449955088359127
0.1233434897739723
0.12212354937038433
0.12083970728770163
0.1194919625819364
0.1180803357502385
0.11660486873089626
0.1150656249033348
0.11346268908811795
0.11179616754694692
0.11006521025653962
0.10826490055679304
0.10638927530803786
0.10443239281741709
0.1023883328332113
0.1002511965448388
0.09801510658285616
0.09567420701895735
0.09322266336597451
0.09065466257787706
0.08797026297890599
0.08519405805514377
0.08235708279685669
0.07949039365828271
0.07662506853479731
0.07379220676291436
0.07102292912028497
0.06834837782569828
0.06579971653908114
0.06340813036149874
0.061194138983296266
0.05913343377037385
0.0571899639053846
0.055327699966168
0.05351063397170181
0.05170277938210119
0.049868171098619185
0.04797086546364682
0.04597494026071272
0.043844494714483706
0.04155167985716644
0.039102420007838604
0.03651152696037786
0.03379383398772528
0.03096419580396012
0.028037488564299367
0.025028609865097848
0.02195247874384809
0.018824035679180486
0.015658242590863562
0.012471353398493451
0.009284991675781812
0.006122209428783523
0.0030060801112640574
-4.030138187330421e-05
-0.0029938187145871617
-0.005831334109698723
-0.008529688348891033
-0.011067555215754116
-0.013425464127458856
-0.015592294404906927
-0.017602057760722167
-0.01950068009404269
-0.021334106408854865
-0.02314830075346513
-0.02498924622050036
-0.0269029449469073
-0.028935418113952935
-0.031132705947224282
-0.03354086771662859
-0.0361895156673436
-0.03903876144382086
-0.042030391829318836
-0.045106212549990914
-0.04820804837631065
-0.05127774312307169
-0.05425715964938767
-0.0570881798586925
-0.059712704698740106
-0.062072654161604554
-0.06412832973551756
-0.06591769456541992
-0.06749924884525857
-0.06893151193628506
-0.07027302224407031
-0.07158233721850586
-0.07291803335380341
-0.07433870618849445
-0.07590297030543078
-0.07766945933178429
-0.07967911054899574
-0.08189786114554151
-0.08427181290986763
-0.08674708654601018
-0.08926982180232569
-0.09178617747149095
-0.0942423313905026
-0.09658448044067736
-0.09875884054765237
-0.10071164668138469
-0.10240329560699615
-0.10385418322700479
-0.10510062252339795
-0.10617894563375076
-0.10712550373995813
-0.10797666706823561
-0.10876882488911846
-0.10953838551746227
-0.11032177631244278
-0.11115544367755564
-0.11206758314705408
-0.11305129306380095
-0.11409037410105945
-0.11516864602666467
-0.11626994765277142
-0.11737813683585535
-0.11847709047671166
-0.11955070452045584
-0.12058289395652347
-0.12155759281867029
-0.12246252923319889
-0.12330150867241664
-0.1240826247604899
-0.1248139902005185
-0.12550373673992235
-0.12616001517044156
-0.1267909953281363
-0.127404866093387
-0.12800983539089394
-0.12861413018967777
-0.1292233896751223
-0.12983216649182308
-0.13043207547767025
-0.13101475048914107
-0.13157184442703287
-0.13209502923646307
-0.1325759959068692
-0.13300645447200912
-0.13337813400996035
-0.133682782643121
-0.1339150814093605
-0.13408207748495152
-0.1341920629866782
-0.13425421848760466
-0.13427855335415473
-0.13427507191801147
-0.134253773476117
-0.13422465229067235
-0.13419769758913788
-0.1341828935642329
-0.1341882741505342
-0.13421355630471443
-0.13425623226311062
-0.13431378920517276
-0.13438370927561016
-0.13446346958439107
-0.1345505422067427
-0.13464239418315163
-0.1347364875193632
-0.13483027918638205
-0.1349222500131986
-0.13501527886027004
-0.13511341714435884
-0.13522071126003654
-0.13534120256713392
-0.13547892739074055
-0.13563791702120523
-0.13582219771413592
-0.13603579069039937
-0.13628271213612164
-0.13656385133186394
-0.1368667126467167
-0.13717521163186974
-0.13747325876303518
-0.13774475948118411
-0.13797361419254656
-0.1381437182686118
-0.13823896204612823
-0.13824323082710305
-0.13814040487880283
-0.13792028432440123
-0.13759809561394876
-0.13719588212811978
-0.1367356822954405
-0.1362395295096961
-0.13572945212993082
-0.13522747348044806
-0.1347556118508102
-0.13433588049583867
-0.13399028763561419
-0.13373564454633488
-0.1335664387910192
-0.1334711569395943
-0.13343828045003406
-0.13345628574557156
-0.1335136442146988
-0.13359882221116715
-0.13370028105398676
-0.1338064770274269
-0.133905861381016
-0.13398835311412655
-0.13405020682656613
-0.13408937806005589
-0.13410381734491197
-0.13409147017670975
-0.13405027701628366
-0.13397817328972703
-0.1338730893883925
-0.13373295066889163
-0.13355567745309513
-0.1333409975511678
-0.13309644212728278
-0.13283163791582503
-0.13255620657692585
-0.1322797647359759
-0.13201192398362466
-0.13176229087578079
-0.13154046693361196
-0.13135604864354497
-0.13121862745726562
-0.13113500918093857
-0.13109998748646007
-0.13110511076004103
-0.13114192230332183
-0.13120196038320178
-0.1312767582318391
-0.13135784404665143
-0.13143674621543747
-0.1315052186715342
-0.13155495148404384
-0.13157811797102778
-0.13156945609717174
-0.13152439660263204
-0.13143836974557468
-0.13130680529089095
-0.13112513251019783
-0.13088878018183706
-0.13059317659087627
-0.13023374952910802
-0.12980592629505044
-0.12930922455348615
-0.12876087956840898
-0.12818292187125996
-0.1275973815827366
-0.12702628833026203
-0.12649167124798436
-0.1260155589767774
-0.12561997966424013
-0.12532696096469675
-0.12515853003919702
-0.1251295652727429
-0.12522393779555863
-0.1254171130674054
-0.1256845559020034
-0.12600173061979772
-0.12634410104795904
-0.12668713052038333
-0.12700628187769186
-0.1272770174672313
-0.12747479914307355
-0.12758017750200948
-0.12759581116363689
-0.12753036030864984
-0.12739248473956252
-0.12719084376561468
-0.12693409620277143
-0.12663090037372302
-0.12628991410788504
-0.12591979474139872
-0.12552919911713029
-0.12512635436552827
-0.12471761971911163
-0.12430884619208787
-0.12390588429512812
-0.12351458404562865
-0.12314079496771121
-0.12279036609222282
-0.1224691459567359
-0.12218298260554815
-0.12193772358968263
-0.12173855873137417
-0.12158781362504101
-0.12148703359081686
-0.12143776343896472
-0.12144154748647291
-0.12149992955705514
-0.12161445298115058
-0.12178666059592348
-0.12201809474526366
-0.1223102972797861
-0.12266145588614234
-0.12305512303275547
-0.12347085976433939
-0.12388822654297567
-0.12428678333747128
-0.12464608962335846
-0.12494570438289489
-0.12516518610506355
-0.1252840927855726
-0.1252819819268557
-0.1251465573835553
-0.12490112711412672
-0.12457872259172974
-0.12421237502509543
-0.12383511512968035
-0.12347997312766634
-0.12317997874796052
-0.12296816122619539
-0.12287754930472873
-0.12294117123264375
-0.12318021407093009
-0.12356403817073242
-0.12404782673552311
-0.12458676196930668
-0.12513602558281334
-0.12565079879349847
-0.12608626232554287
-0.1263975964098525
-0.1265399807840589
-0.12646859469251884
-0.12615199274825836
-0.12561736224003853
-0.12490795130038498
-0.12406700798508498
-0.12313777985665085
-0.12216351398432057
-0.12118745694405707
-0.120252854818549
-0.11940295319721006
-0.11868099717617946
-0.11812132161852185
-0.11771914627007608
-0.1174589597107963
-0.11732524973558317
-0.11730250364606275
-0.11737520825058635
-0.11752784986423083
-0.11774491430879822
-0.11801088691281587
-0.11831025251153664
-0.11862698092313706
-0.11894277926630464
-0.11923873262603851
-0.11949592557635733
-0.11969544219800525
-0.1198183660784517
-0.11984578031189148
-0.11975876749924466
-0.1195384097481567
-0.11916578867299839
-0.11863055694971837
-0.11796010998102555
-0.1171922281298068
-0.11636469157538644
-0.11551528000381388
-0.11468177260786423
-0.11390194808703778
-0.11321358464755993
-0.1126544600023818
-0.11226235137117964
-0.11206489054758666
-0.11204497035776786
-0.1121731544440339
-0.11242000557080997
-0.11275608600924668
-0.11315194447027242
-0.11357800410811639
-0.1140046209616427
-0.11440213685362458
-0.1147408783613806
-0.11499675277638677
-0.11517036706745477
-0.11526913389824368
-0.11530045090939721
-0.11527170049610458
-0.11519024980810015
-0.11506345074966363
-0.11489863997961998
-0.11470313891133957
-0.11448425371273802
-0.11424803270699306
-0.11399501269606667
-0.11372419607951308
-0.11343456995967871
-0.11312510619345567
-0.11279476139228095
-0.11244247692213727
-0.11206717890355225
-0.11166777821159908
-0.11124317047589621
-0.11079394924433073
-0.1103282818979483
-0.1098564213121156
-0.10938860519145471
-0.1089350559951327
-0.10850598093686234
-0.1081115719849014
-0.10776200586205299
-0.10746744404566567
-0.10723803276763327
-0.10707924930104361
-0.10697590935534476
-0.10690708972129442
-0.1068518517318342
-0.1067892414744511
-0.10669828979117756
-0.1065580122785913
-0.10634740928781508
-0.10604546592451719
-0.10563115204891113
-0.10508809137411187
-0.1044206402554217
-0.10363890168717764
-0.1027529636957464
-0.10177289906203946
-0.10070876532151428
-0.09957060476417293
-0.09836844443456333
-0.09711229613177838
-0.09581215640945646
-0.09447736207300668
-0.09311436671963869
-0.09172881125097077
-0.09032632129102362
-0.08891250721836354
-0.08749296416610193
-0.08607327202189566
-0.08465899542794673
-0.08325568378100245
-0.08186887123235574
-0.08050133242419841
-0.07914359672474644
-0.0777827725574075
-0.07640371029892468
-0.07499149533501724
-0.07353541845062385
-0.07202485925111153
-0.07044925175580095
-0.06879808439796616
-0.06706090002483446
-0.06522976788531334
-0.06330784482754642
-0.06130141912063261
-0.05921683358203851
-0.05706048544318402
-0.054838826349442524
-0.05255836236014095
-0.0502256539485595
-0.04784731600193191
-0.04543001782144536
-0.04298080124869541
-0.04050818456475737
-0.038021137641239426
-0.03552868478174994
-0.03303990470385096
-0.030563930539057656
-0.02810994983283887
-0.025687204544616926
-0.023304991047767287
-0.020972660129619194
-0.018695855701059177
-0.01646343781502637
-0.014259610922741644
-0.012068633666892715
-0.009874819104121045
-0.0076625347050212015
-0.005416202354141268
-0.0031202983499828895
-0.0007593534050008618
0.0016820473543960194
0.004214502045748716
0.006827202580583785
0.009503304989780019
0.012225910596686363
0.014978066310698123
0.017742764627257185
0.02050294362785221
0.0232414869800181
0.02594122393733672
0.02858492933943601
0.03115748635769564
0.033653434936878404
0.03606998515376932
0.03840429281007227
0.040653459293537524
0.04281453157796209
0.04488450222318938
0.046860309375109536
0.048738836765658995
0.050516913712821104
0.0521908962847515
0.05375520264303738
0.05520366731791981
0.056530070397687246
0.05772813755667475
0.0587915400552639
0.05971389473988315
0.06048876404300701
0.06110965598315716
0.061570024164901066
0.06186610746028899
0.062007509625421564
0.06201261768156297
0.061901172382373915
0.06169293630029593
0.06140769382655129
0.06106525117114302
0.06068543636285481
0.060288099249251326
0.05989311149667785
0.059515398593096236
0.05914749994568953
0.05877566069493344
0.05838614708185049
0.05796524716624352
0.05749927082669647
0.05697454976057372
0.056377437484020784
0.055694309331963655
0.05491156245810914
0.05401658726302062
0.053001184207254526
0.05185841409683492
0.050581359629632804
0.04916312532229962
0.04759683751026773
0.04587564434775032
0.04399271580774113
0.041941243682014816
0.03971444158112653
0.03731077748596851
0.034752413837164604
0.032068226181267895
0.02928711229257559
0.026437991764166006
0.023549806007898032
0.020651518254411277
0.017772113553126138
0.014940598772243824
0.012186002598746037
0.009529585721794444
0.006957335597131167
0.00444527013512732
0.0019694284325646036
-0.0004941285949934867
-0.002969318213203013
-0.005480035868939349
-0.008050155190297198
-0.01070352798659037
-0.013463984248352196
-0.016346024183536534
-0.01932188901942419
-0.0223518237685977
-0.025396050840379457
-0.028414770825310996
-0.031368162495153395
-0.034216382802886754
-0.03691956688271042
-0.039437828050043006
-0.041731257801522495
-0.04377241764878963
-0.0455906173945036
-0.047231263590973245
-0.048739742064304405
-0.05016141682182185
-0.05155208553781996
-0.052971241246377955
-0.05446579196415382
-0.05608277250444806
-0.057869389797542324
-0.05985859416310179
-0.06201783681328371
-0.06429606740993099
-0.06664240642276652
-0.06900614643849463
-0.07133675216080047
-0.07358386041035087
-0.07569728012479368
-0.07762699235875802
-0.07932315028385442
-0.08074712603387554
-0.08191081843506408
-0.08284063816585567
-0.08356316906093322
-0.08410516707196095
-0.08449356026758414
-0.08475544883342977
-0.08491810507210544
-0.08500897340320049
-0.08505567036328524
-0.0850846949665797
-0.0851168309573443
-0.08517135511297186
-0.0852677162020812
-0.08542553511027204
-0.08566460484012535
-0.08600489051120358
-0.08646652936005016
-0.08706983074018981
-0.08783527612212877
-0.08877427396520578
-0.0898561359468047
-0.09103827277599055
-0.09227826634474602
-0.09353387066203464
-0.09476301185380133
-0.09592378816297226
-0.09697446994945484
-0.09787349969013777
-0.09857949197889095
-0.09906509711403676
-0.09936662031361453
-0.09953870069829779
-0.09963615110076914
-0.09971395647069176
-0.09982727387471088
-0.10003143249645252
-0.10038193363652398
-0.1009334072754506
-0.10172468273515876
-0.10281176237121101
-0.10420459666997917
-0.10589398031075699
-0.10786734321051158
-0.11010875182621409
-0.11259890915483943
-0.11531515473336607
-0.11823146463877657
-0.12131845148805719
-0.12454336443819788
-0.12787662363273244
-0.13131529659714586
-0.1348616976836814
-0.1385147785172637
-0.1422701272628214
-0.1461199686252869
-0.15005316384959638
-0.15405521072068995
-0.1581082435635114
-0.1621910332430085
-0.1662770635918033
-0.17032760725408064
-0.17429803116305545
-0.17814033856880468
-0.1818031692614091
-0.1852317995709533
-0.18836814236752558
-0.19115074706121823
-0.19351715303173597
-0.19548683030329034
-0.19700208703372246
-0.19796212878143146
-0.19827573135123808
-0.19785879635765732
-0.1966343510036409
-0.1945325480805773
-0.19149066596829178
-0.18745310863504622
-0.18237140563753948
-0.17620421212090695
-0.16891290405161524
-0.1604456615596062
-0.15075193390640104
-0.13978829539559037
-0.12751844591920153
-0.11391321095769856
-0.09895054157998241
-0.08261551444339062
-0.06490033179369754
-0.04580432146511632
-0.025337656429104016
-0.0035348212738092336
0.01955761357766414
0.043885951636928384
0.06938937082715925
0.09599992348309555
0.12364253635103953
0.1522350105888562
0.18169058474495225
0.21212959826027344
0.24336994097673925
0.27500088806782996
0.30662890040491697
0.3378818981530213
0.36840926119406525
0.39788182912687214
0.4259919012671656
0.4524532366475704
0.47700105401761184
0.49939203184371644
0.5194148419315128
0.5369284328237712
0.5518273444228641
0.564027577789186
0.5734665937000316
0.5801033126495969
0.5839181148489786
0.5849128402261746
0.5831107884260832
0.5785567188105035
0.5713061096085109
0.5613860463310013
0.5488306213240272
0.5336953851332317
0.5160573480211598
0.49601497996725646
0.4736882106678675
0.44921885174462883
0.42283686541044463
0.3948353683634227
0.36548426105576576
0.3350646993921002
0.30385096724347144
0.2721030483013658
0.2400666236609228
0.2079730718199821
0.17603946867902803
0.14446858754124578
0.11344889911246507
0.08315457150121632
0.05374451898687115
0.025358924893729203
-0.001877617719234734
-0.027854818533484982
-0.05247668982783672
-0.07566154647841039
-0.0973420059586749
-0.11746498833940626
-0.13599171628872686
-0.15289771507206906
-0.16817520417142254
-0.18184185638213807
-0.19393289430691513
-0.20449784351703057
-0.2136005321810971
-0.22131909106505318
-0.2277439781969135
-0.23277674427798514
-0.2364133984625791
-0.23879229287082465
-0.24004063766820594
-0.24024968062990848
-0.23949708020715152
-0.2378561158999722
-0.23539568934014424
-0.2321803242911745
-0.22827016664830801
-0.2237209844385216
-0.21858416782053156
-0.2129067290847848
-0.20674150462289603
-0.20018466232816945
-0.1933419271266952
-0.18631464776030585
-0.1791997951025751
-0.17208996215880623
-0.16507336406604334
-0.1582338380930604
-0.1516508436403722
-0.14539946224022304
-0.13954158330223673
-0.1340934364560496
-0.129054797933985
-0.12442106460040399
-0.120183255451408
-0.11632801161482909
-0.11283759635023863
-0.10968989504893949
-0.1068584152339735
-0.1043122865601148
-0.10201930658754003
-0.0999571815285611
-0.09810342495308749
-0.0964311730967752
-0.0949091843270166
-0.0935018391429387
-0.09218314851631335
-0.09094666305620841
-0.08978114316535658
-0.08867564008665468
-0.08762070528144428
-0.08661282211407598
-0.0856504274782938
-0.08473226019898131
-0.08385736081568446
-0.08302507158260969
-0.08223503646862607
-0.0814872011572634
-0.08078181304671349
-0.08011942124982918
-0.07950059333478815
-0.07892486591484153
-0.07839168575027274
-0.07790080126333133
-0.07745226259092866
-0.07704642158463731
-0.07668393181069173
-0.07636574854998751
-0.07609312879808229
-0.07586763126519484
-0.07568851890053843
-0.0755431174073825
-0.07541545277658324
-0.07528985221611258
-0.0751509446486042
-0.07498366071135293
-0.07477323275631553
-0.07450519485011009
-0.07416538277401637
-0.07373993402397533
-0.07321863653163964
-0.07260739121918641
-0.07191707038552018
-0.07115884959473087
-0.07034420612557073
-0.06948491897145281
-0.06859306884045237
-0.06768103815530577
-0.0667615110534111
-0.0658474733868277
-0.06495109165701163
-0.06407690991102813
-0.06321686471552099
-0.062371306492887156
-0.061542012460226184
-0.06073077524456537
-0.059939402882861516
-0.059169718821998805
-0.05842356191879112
-0.0577027864399798
-0.057007014252247176
-0.05632524322556746
-0.05564334190296824
-0.054947193768068316
-0.054222697714416276
-0.05345576804548785
-0.05263233447468842
-0.051738342125351056
-0.05075975153073811
-0.0496825386340397
-0.04849630437354295
-0.04720777589097247
-0.045828760773242425
-0.044371082792465634
-0.04284658113068445
-0.04126711037986881
-0.03964454054191812
-0.03799075702865946
-0.03631766066184933
-0.0346371676731718
-0.0329590624311896
-0.03128295046533173
-0.029605430586747798
-0.02792311654221424
-0.02623263748843726
-0.024530637992050186
-0.02281377802961658
-0.02107873298762674
-0.019322193662501198
-0.017540866260587484
-0.015733118090876
-0.013905156647780373
-0.01206552797229819
-0.010222793889107814
-0.008385531632816046
-0.006562333847959563
-0.004761808589001862
-0.002992579320336623
-0.0012632849162843803
0.00041788511244489736
0.002047832415126582
0.0036380124812469446
0.005204563077086719
0.006763608882911988
0.00833126066504439
0.009923615275857348
0.011556755653780098
0.013246750823293064
0.015009655894932767
0.01686151206528721
0.018815882889367065
0.020874568319124414
0.023035855590207252
0.02529801743319458
0.02765931266472129
0.03011798618747369
0.03267226899019388
0.035320378147675593
0.03806051682076817
0.04089087425637254
0.04380849822427291
0.04680503703190758
0.04987051899006929
0.05299495821762797
0.05616835491950903
0.05938069538668971
0.06262195199620277
0.06588208321113243
0.06915103358061937
0.07241873373985493
0.07567448996653275
0.07890467457635102
0.08209477385796875
0.08523026003150082
0.08829659140311802
0.0912792123650424
0.09416355339555216
0.09693503105897674
0.09957904800570173
0.10208099297216354
0.10443219068090208
0.10665246332397618
0.1087701530136027
0.11081358781831877
0.1128110818489515
0.11479093530237999
0.1167814344615391
0.11881085169541473
0.12090744545904947
0.12309946029353669
0.12540755188649538
0.12781601784391766
0.13029825489051947
0.1328276438139
0.1353775514877144
0.13792133087166958
0.14043232101152792
0.14288384703910317
0.1452492201722655
0.14750173771493574
0.1496202890013598
0.15161068711826414
0.15348681245425333
0.15526253302114212
0.1569517029168005
0.15856816232515014
0.16012573751616854
0.16163824084588502
0.16311947075638403
0.16458321177580248
0.16604071992476774
0.167491135935475
0.16892995086055812
0.17035264113097304
0.1717546692637314
0.17313148469933046
0.174480024883566
0.1757978508702462
0.1770815572876477
0.17832777984378242
0.1795326547939067
0.18068975425254333
0.18179190753319763
0.18283198487298757
0.18380289758876814
0.18469759807712954
0.18550907981439882
0.18623037735663905
0.186854566339649
0.18737476347896403
0.18778470068641112
0.1880809222219687
0.1882608485058733
0.1883219412082362
0.18826170307890522
0.18807767794746388
0.1877674507232321
0.18732864739526586
0.18675893503235697
0.18605602178303374
0.18522093964469416
0.1842706316159419
0.18322687103804697
0.18211147332999233
0.18094629499049722
0.1797532335980165
0.178554227810742
0.17737125736660087
0.17622634308325646
0.17514154685810857
0.17413150743113223
0.1731747656452466
0.17223898113082795
0.17129185227064606
0.1703011185272062
0.16923456044275045
0.16805999963925553
0.16674529881843617
0.16525836176174136
0.16356713333035786
0.16164926531218174
0.15952931965120057
0.15724608564285425
0.15483839675282393
0.1523451275265279
0.14980519358911934
0.14725755164548918
0.14474119948026212
0.14229517595780186
0.13995856102220527
0.13776145412310462
0.1356901846114747
0.1337178425335694
0.13181755605799456
0.12996249443309432
0.12812586798694633
0.12628092812736702
0.12440096734190605
0.1224593191978524
0.12042935834222823
0.11828891613146576
0.11603733625127612
0.11368051444246864
0.1112243881197508
0.10867493577756862
0.10603817699010173
0.10332017241126795
0.10052702377471968
0.0976648738938469
0.09473990666177366
0.09175967156055653
0.08873821079104627
0.08569089809961979
0.0826294382813968
0.0795683704781339
0.07652284268519148
0.0735079731530836
0.07053885038747443
0.06763053314918183
0.06479805045417313
0.062052807165822926
0.059388643685072684
0.0567940317239409
0.054257411981079216
0.05176719541029353
0.04931176322053887
0.04687946687592494
0.04445862809571045
0.042037538854308505
0.039604461381281576
0.03715033480281738
0.0346792923707689
0.03219946994570035
0.029718974621981763
0.027245883749137435
0.02478824493184082
0.022354076029919793
0.019951365158351688
0.017588070687267823
0.015272121241949004
0.013011162163506718
0.010811568454189298
0.008679306516409033
0.0066203129138204635
0.004640494465231366
0.002745728244599734
0.000941861581037474
-0.0007652879411942631
-0.002369932482679976
-0.003866313948854701
-0.005254886088694679
-0.006566427807831807
-0.007841013140255685
-0.00911874820999807
-0.010439768885937641
-0.01184424078180214
-0.013372359256166474
-0.015064349412455085
-0.01696046609893908
-0.01910099390873928
-0.021511614043651234
-0.024146219172201208
-0.02693673464812537
-0.029815109885485372
-0.03271332404318876
-0.03556338602499429
-0.03829733447950589
-0.04084723780017814
-0.04314519412531243
-0.04512333133805893
-0.046730554909961065
-0.04799812154207991
-0.04898256910208051
-0.04974047186378837
-0.050328433845876624
-0.05080308881186697
-0.05122110027012897
-0.05163916147388094
-0.05211399542118837
-0.05270235485496633
-0.05344967294427181
-0.054345542317247794
-0.05536242221953393
-0.05647279702051434
-0.057649180834420395
-0.058864117520333215
-0.06009018068218018
-0.06129997366873872
-0.062466129573633025
-0.06356131123533651
-0.06456298504053064
-0.06547218311264995
-0.06629720819117475
-0.06704639474995099
-0.0677281070076718
-0.06834890175599016
-0.06891500379946935
-0.06943442041853753
-0.06991515316910163
-0.07036519764492422
-0.07079152643667756
-0.07119608305425461
-0.071579251691119
-0.07194140567667819
-0.0722829121519276
-0.07260413229571842
-0.07290542132475622
-0.07318712849360226
-0.07344959709467258
-0.07369316445823795
-0.0739181512003596
-0.07412481880407062
-0.07431340638370333
-0.07448414708675258
-0.07463726809856859
-0.07477299064235629
-0.07489152997917593
-0.0749930954079426
-0.07507789026542679
-0.0751461119262535
-0.07519900443924901
-0.07524301924790688
-0.07528621286299744
-0.0753366363031311
-0.07540233462477333
-0.0754913469222448
-0.07561170632772109
-0.07577144001123282
-0.07597856918066591
-0.07624110908176106
-0.07656449897874525
-0.07694142444887869
-0.0773606199796854
-0.0778108129227636
-0.0782807246675673
-0.07875907064140496
-0.07923456030944047
-0.07969589717469283
-0.0801317787780358
-0.08053089669819856
-0.08088333620676823
-0.0811861296504993
-0.08143845840358813
-0.08163949853189804
-0.08178842013914733
-0.08188438736690931
-0.08192655839461245
-0.0819140854395401
-0.08184611475683091
-0.08172178663947827
-0.08154242376302238
-0.08132023030267513
-0.08107078386990493
-0.08080965715939512
-0.08055241690368425
-0.08031462387316622
-0.08011183287608958
-0.07995959275855823
-0.07987344640453099
-0.07986893073582181
-0.07995691344950943
-0.0801250204487179
-0.08035364875123086
-0.08062318713498336
-0.0809140184157651
-0.08120651944722093
-0.08148106112085106
-0.0817180083660102
-0.08189772014990841
-0.08200054947761112
-0.08201165178231483
-0.08194017180184876
-0.08180271834056142
-0.08161589664171923
-0.08139630598644412
-0.08116053969371281
-0.080925185120357
-0.08070682366106378
-0.08052203074837497
-0.08038737585268767
-0.08031554942010462
-0.08029987893945599
-0.08032765094918085
-0.08038614404862698
-0.08046263087499708
-0.08054437810334941
-0.08061864644659669
-0.08067269065550702
-0.08069410955717152
-0.08067054584838286
-0.0805925051204513
-0.08046657185048908
-0.08030435072658333
-0.08011744785579378
-0.07991746908828191
-0.07971602001731101
-0.07952470597924588
-0.07935513205355325
-0.07921890306280135
-0.07912762357266019
-0.0790905632874877
-0.07910528431387467
-0.0791656793243614
-0.07926563808205019
-0.07939905009314491
-0.07955980460695147
-0.07974179061587693
-0.07993889685543051
-0.08014501180422308
-0.08035402368396684
-0.08055904794199459
-0.08074932125710353
-0.08091286546503955
-0.08103770172382
-0.08111185093456386
-0.08112333374149198
-0.0810601705319269
-0.08091038143629277
-0.08066198632811533
-0.08030300482402243
-0.07982757185964932
-0.07926057260666794
-0.07863653596792715
-0.07798999399299374
-0.07735547847453653
-0.07676752094832535
-0.07626065269323247
-0.07586940473123119
-0.07562830782739699
-0.07557189248990683
-0.07572466046226732
-0.07606061117497802
-0.076537881913384
-0.07711460400444244
-0.07774890851821259
-0.07839892626785568
-0.07902278780963364
-0.07957862344291118
-0.08002456321015394
-0.08031873689692977
-0.08042870217323277
-0.0803695671547283
-0.08017139667954418
-0.07986426080375175
-0.07947822932652382
-0.07904337179013493
-0.0785897574799618
-0.07814745542448216
-0.07774653439527596
-0.07741706290702464
-0.07718385630404762
-0.07704519649416618
-0.0769910068414871
-0.0770112073380275
-0.07709571771890629
-0.0772344574623443
-0.07741734578966367
-0.07763430166528867
-0.07787524379674483
-0.07813009063465981
-0.07838957045539191
-0.07864850932274375
-0.07890302588585052
-0.07914923902751614
-0.07938326737364695
-0.07960122929325023
-0.07979924289843555
-0.07997342604441408
-0.08011989632949837
-0.0802347710951031
-0.08031492245334114
-0.08036104758611513
-0.08037505200620174
-0.08035884143631553
-0.08031432134227275
-0.08024339693299122
-0.08014797316049063
-0.08002995471989223
-0.07989124604941919
-0.07973375133039605
-0.07955862087789496
-0.079363180815593
-0.07914354707876452
-0.07889583487009214
-0.0786161591353603
-0.07830063456345501
-0.07794537558636405
-0.07754649637917672
-0.07710011086008438
-0.07660233269037965
-0.07605257518652032
-0.07546702109976461
-0.07486716685631074
-0.07427451075169166
-0.07371055082454206
-0.07319678485659893
-0.07275471037270034
-0.07240582464078651
-0.07217162467189903
-0.0720736072201814
-0.07212583461171133
-0.07230454075490868
-0.07257397867053467
-0.07289840549000973
-0.07324207870774636
-0.07356925556125826
-0.07384419183494112
-0.07403018743955267
-0.07409083303841817
-0.07399061118545606
-0.07370358777870926
-0.07325275990544351
-0.07267666196511322
-0.0720138147836538
-0.07130271916830964
-0.07058185590763523
-0.06988968577149347
-0.06926464951105712
-0.0687451678588078
-0.06836964152853664
-0.06816791672704971
-0.0681262507639822
-0.06821701374652625
-0.06841254991844944
-0.06868518350482801
-0.06900721871204796
-0.06935093972780457
-0.06968861072110188
-0.06999247584225385
-0.07023475922288315
-0.07039242408709612
-0.07046674596777211
-0.07046673634051646
-0.07040138998761405
-0.07027968167265917
-0.07011056614055511
-0.06990297811751474
-0.06966583231105998
-0.06940802341002218
-0.06913842608454182
-0.06886492085286237
-0.06859038011454659
-0.06831606394231143
-0.0680432116957814
-0.06777304271589037
-0.06750675632488146
-0.06724553182630709
-0.06699052850502889
-0.06674288562721784
-0.06650372244035412
-0.06627314118392594
-0.0660461111893914
-0.06581594721945586
-0.06557594329317534
-0.06531937341091525
-0.06503949155435035
-0.06472953168646436
-0.06438270775155078
-0.06399221367521198
-0.06355122336435966
-0.06305505270141579
-0.06251010180968165
-0.06192630597042729
-0.06131358204969789
-0.06068182689484818
-0.06004091733454193
-0.05940071017875207
-0.058771042218761296
-0.05816173022716094
-0.057582570957852214
-0.05704055853938096
-0.056528353570476766
-0.05603400721554287
-0.055545548515579586
-0.05505098649289559
-0.054538310151109895
-0.053998231312394354
-0.05342235781067008
-0.05279753751390806
-0.05211067487392732
-0.05135027054035691
-0.05051256224954198
-0.04959635166395983
-0.04860055867178086
-0.047524220246009774
-0.0463664904444864
-0.045126640409884296
-0.043804058369712594
-0.042398249636313834
-0.04090883660686631
-0.039336381107836
-0.03768580499126689
-0.0359635116423341
-0.03417602217778627
-0.032329974799205116
-0.03043212479300799
-0.02848934453044586
-0.026508623467605394
-0.024497068145406517
-0.022461902189605032
-0.020409288782981143
-0.018339416673900127
-0.01625060976807877
-0.014141303518891007
-0.012010050464543676
-0.00985552022807969
-0.007676499517375042
-0.0054718921251418785
-0.003240718928924996
-0.000982117891105895
0.001303978983481214
0.0036140191715005113
0.00594320310639717
0.008286613583445283
0.010639216313086505
0.012995859920925616
0.015351275947735247
0.0177000788494511
0.020036765997176645
0.02235571767717859
0.024653337920369063
0.02693700987209144
0.029217583707034398
0.03150579429873432
0.03381225943589536
0.03614747982238502
0.03852183907723833
0.04094560373465317
0.04342892324399609
0.045981829969795766
0.04861029871514536
0.05129973213749951
0.05402879902052631
0.05677604771686652
0.05951990949432868
0.06223869853588428
0.06491061193967279
0.06751372971899688
0.07002601480232663
0.07242531303329572
0.07469326191640155
0.07683170307294188
0.07884894420365796
0.08075317930714415
0.08255268536978239
0.08425781539340745
0.08587925868434838
0.08742766884673199
0.08891385360961718
0.0903487748269912
0.09174044442114186
0.09308086619559902
0.09435695452612063
0.09555577517601681
0.09666454803352961
0.09767064711183024
0.09856160054902081
0.09932509060813327
0.09994895367713047
0.10042118026890474
0.1007330308974585
0.1008921686671014
0.100911690089494
0.10080484860100157
0.10058505176291974
0.10026586126147431
0.09986099290782167
0.09938431663804827
0.09884985651317062
0.09827179071913603
0.09766062879974707
0.0970070693812899
0.09629546883793688
0.0955103341692019
0.09463632649952872
0.09365826107829178
0.09256110727979548
0.09132998860327483
0.08995018267289456
0.08840712123775073
0.08669022881040007
0.08480916246808409
0.08278027629764204
0.08062008209075044
0.07834524576401457
0.07597258735897175
0.07351908104208747
0.0710018551047598
0.0684381919633148
0.06584552815901117
0.06323955757930687
0.060626191818509895
0.05800825389148704
0.055388719136157345
0.0527707170153714
0.050157531116908044
0.04755259915347895
0.0449595129627232
0.042382018507213064
0.03982401587444834
0.03728782638055695
0.0347668348818837
0.03225161530315982
0.029732902573765225
0.027201587574520892
0.024648715311175535
0.022065484914410623
0.019443249639835368
0.016771400441979178
0.01402695947451673
0.011199513648051643
0.008301815274517073
0.005353433985249638
0.002373828058222326
-0.000617659554123857
-0.003601801224885638
-0.00655948465269191
-0.009471712861708724
-0.012319604201635189
-0.015084392347706775
-0.01775067526964854
-0.020320264080383798
-0.022800689656042535
-0.025199601458592524
-0.027524764275534408
-0.029784058219905908
-0.03198547873027732
-0.03413713657075607
-0.03624725783098213
-0.038324183926132564
-0.04037297075854651
-0.04238086526616449
-0.04432934573456123
-0.04620000229985244
-0.04797454042368773
-0.04963478089325286
-0.051162659821267005
-0.052540228645985565
-0.05374965413119771
-0.054773218366228414
-0.055600080177350374
-0.056255204351969644
-0.05677540432376128
-0.057197615886270634
-0.05755889015857706
-0.05789639358529519
-0.05824740793657475
-0.058649330308099844
-0.059139673121089836
-0.0597560641222989
-0.06052808302972157
-0.06144226834671528
-0.06247106531992069
-0.06358702587514643
-0.06476281726373524
-0.06597122206256578
-0.06718513817405017
-0.06837757882613678
-0.06952167257230764
-0.07059066329158081
-0.07156259307096034
-0.07244041365374633
-0.0732353672235321
-0.07395881633861728
-0.07462223888283548
-0.07523722806555593
-0.07581549242168213
-0.07636885581165298
-0.07688053226328435
-0.07733496900728289
-0.0777732726794542
-0.07823109704933862
-0.0787403257419552
-0.0793302580382868
-0.08002760961900987
-0.08085651256449604
-0.08183851535481047
-0.08299258286971366
-0.0843350963886594
-0.08587985359079703
-0.08763826948619415
-0.0896202425946387
-0.09183344071393426
-0.09428294826603442
-0.09697126607258491
-0.09989831135492813
-0.10306141773409838
-0.10645533523082705
-0.11007223026553699
-0.11390168565834853
-0.11792854434402272
-0.12212359655505492
-0.12645125068569532
-0.1308733290784809
-0.13534907047563952
-0.1398351300190967
-0.1442855792504691
-0.14865190611107093
-0.15288301494190762
-0.1569252264836823
-0.1607253273645091
-0.16424377231521148
-0.16745532177651087
-0.17044627637074175
-0.17314124407445
-0.1754180256303082
-0.1771629193304676
-0.17827072101656297
-0.178644724079709
-0.17819671946050242
-0.1768450356962462
-0.17450604223463584
-0.17110113296361226
-0.16656019701326338
-0.16082162106316197
-0.1538322893423577
-0.1455475836293872
-0.1359313832522619
-0.12495606508848199
-0.1126025035650235
-0.09886153762076476
-0.08374034214180384
-0.06725719685899693
-0.04943888080983904
-0.030320670581292303
-0.00994634030981614
0.011631838318666213
0.03435309606873133
0.058148166155494216
0.08293928424456783
0.10864369396838035
0.13518890095044964
0.1625001624241517
0.19049424234533965
0.2190794071204108
0.24815542560625517
0.27761356911030743
0.3073648878385948
0.3372071520693903
0.36677446993560114
0.39571777716885914
0.4236826725655695
0.4503310102928087
0.4753517018693102
0.49846072366045935
0.5194011168782516
0.5379429875813314
0.5538835066749564
0.5670469099110304
0.5772844978880732
0.5844802406782006
0.5885752575794941
0.5895477838235729
0.5874031265567253
0.5821736577718704
0.5739188143085606
0.5627250978529725
0.5487060749379216
0.5320023769428427
0.5127817000938149
0.49123663134514134
0.46757513450952803
0.44202832760630417
0.4148543907126207
0.3862655657684549
0.3564621720969579
0.3257167618074966
0.2942881856440592
0.2624213973027551
0.23034745343187094
0.19828194204877847
0.16641809244978215
0.1349324015749734
0.10398746726626537
0.07373199031769163
0.044300774475462816
0.015814726437910903
-0.011619144144457031
-0.03790772466901013
-0.06297179958094506
-0.08674242726549045
-0.10914502594175521
-0.13011235482269695
-0.14959106536189842
-0.16754170606081165
-0.18393872246872361
-0.19877045718278674
-0.21203914984799233
-0.22376093715719322
-0.23396585285108457
-0.24269681374908444
-0.24981410951984973
-0.25528673976465527
-0.25922572568653235
-0.26173827789712256
-0.2629277964166699
-0.2628938706740266
-0.2617322795066494
-0.2595349911606011
-0.2563901632905511
-0.2523909694016343
-0.24767450614155306
-0.24239008825294975
-0.23668322779315734
-0.23069563051227368
-0.22456519159292893
-0.21842599562636605
-0.21240831661242665
-0.20663861795956054
-0.2012395524848207
-0.19630647834117188
-0.19180372677331498
-0.18764894093081827
-0.18375592061149856
-0.18003465502178903
-0.17639132277671768
-0.17272829189992348
-0.16894411982364832
-0.16493355338874588
-0.16058752884466987
-0.1558225799795567
-0.15071098105781633
-0.14537505021947406
-0.13993333672246416
-0.13450057923332673
-0.1291877058272085
-0.12410183398786434
-0.11934627060765084
-0.11502051198753337
-0.11122024383708005
-0.10799615948878645
-0.10530123362543331
-0.10308725158287943
-0.10130622194004381
-0.09991033981250905
-0.09885198685251813
-0.09808373124897767
-0.09755832772745553
-0.09722871755018395
-0.09704802851605605
-0.09697117149437921
-0.09696193222607173
-0.09698722421795464
-0.09701414985358842
-0.09700999805319643
-0.09694224427366334
-0.09677855050853772
-0.0964867652880294
-0.0960349236790112
-0.09539124728501788
-0.09453420192383705
-0.09349725747276899
-0.09233265466625638
-0.09109283576005305
-0.08983042954657516
-0.08859825135490214
-0.08744930305077482
-0.08643677303659739
-0.08561403625143539
-0.08503465417101762
-0.08473952786277948
-0.0846996179856057
-0.08486226241277073
-0.08517496609994374
-0.08558542053945567
-0.08604150376030016
-0.08649128032813322
-0.08688300134527337
-0.08716510445070133
-0.0872862138200602
-0.08720426917062413
-0.0869273049645723
-0.08648051169095797
-0.0858892804254334
-0.08517918878031303
-0.08437600090457441
-0.08350566748385667
-0.0825943257404617
-0.08166829943335346
-0.08075409885815922
-0.0798737032088127
-0.07902344748027257
-0.07819105754951584
-0.07736443845145646
-0.07653168175766936
-0.0756810655763924
-0.0748010545525257
-0.07388029986763246
-0.0729076392399376
-0.0718720969243284
-0.07076785741948785
-0.06961436314385877
-0.06842698481095379
-0.0672307169361226
-0.06605300760443253
-0.06492133135514258
-0.06386318918170149
-0.06290610853174901
-0.06207764330711532
-0.06140537386382236
-0.06090671467740797
-0.060543134388032806
-0.06025704469924866
-0.05999088048581026
-0.059687103109170865
-0.059288200384976106
-0.0587366865830604
-0.05797510242745209
-0.05694601509636768
-0.055592018222214934
-0.053868693839990295
-0.051802947873751115
-0.04944609688759484
-0.046849505169812976
-0.04406456346288812
-0.04114268896349442
-0.03813532532249611
-0.035093942644947515
-0.03207003749009315
-0.0291151328713714
-0.02627433301549901
-0.023557262187270552
-0.020961409938565566
-0.018484281529994415
-0.01612340867635465
-0.013876349546635896
-0.01174068876401758
-0.00971403740587233
-0.007794033003760834
-0.005978339543435731
-0.004261547678732042
-0.0026211718602377468
-0.0010288866700384194
0.0005436121058142816
0.0021246022270780592
0.0037423349993172335
0.005425035273908892
0.007200901448037471
0.009098105464698525
0.01114479281269351
0.013362942497086904
0.015740578414269128
0.018254043260964053
0.02087964271521321
0.023593656000870575
0.026372335887598197
0.029191908690868767
0.03202857427196076
0.03485850603796517
0.03765785094178148
0.040406759278097844
0.04311033402776887
0.04578355687647141
0.048435506515780394
0.0510751084279682
0.05371131350720294
0.05635309805955439
0.05900946380299031
0.0616894378673783
0.06440207279448112
0.06715391121963883
0.06993746855895384
0.0727404443512466
0.07555055904642617
0.07835555850630374
0.08114321400458835
0.08390132222688874
0.08661770527070908
0.08928021064545588
0.09187671127243306
0.09439756967799316
0.09684685312221003
0.09923337383543132
0.10156597390295084
0.10385352082196245
0.10610490750155555
0.10832905226272155
0.11053489883834945
0.11273141637322734
0.11492759942404243
0.11713066481287156
0.11933782974489335
0.12154287301403557
0.12373959552426632
0.12592182359144954
0.12808340894335063
0.130218228719633
0.1323201854718598
0.13438320716348975
0.1364012471698839
0.1383691895340386
0.14028698441044737
0.14215635155655154
0.1439790378251166
0.14575681548080577
0.147491482200182
0.14918486107170437
0.1508388005957332
0.15245517468452724
0.154035882662244
0.15558225535708733
0.15709233981124487
0.15856308331813887
0.15999147392095053
0.16137453036352112
0.16270929696559214
0.16399284345880352
0.16522226498669432
0.16639468210470118
0.16750724078016058
0.16855647363850593
0.1695353710589459
0.1704357107420873
0.1712492945756405
0.1719679498592145
0.1725835293043167
0.17308791103435311
0.17347299858462908
0.17373072090234845
0.17385303234661417
0.17383453067102092
0.1736844837847729
0.1734172746095593
0.17304731657593475
0.17258904852635323
0.17205693471516695
0.17146546480862718
0.17082915388488368
0.17016254243398551
0.16948019635788036
0.16879455571402388
0.16810603359754375
0.16741087375497438
0.1667053410924276
0.1659857259279147
0.16524779749819943
0.16447794918349484
0.163670622254037
0.16282452115382431
0.16193832663814023
0.16100946994276216
0.16002848038780557
0.15898346618775153
0.15786250940841048
0.15665366842688083
0.1553449779315444
0.15392444892206925
0.15238006870940876
0.15069980091580404
0.14887158547477974
0.14688791070130772
0.14476693479609293
0.14253576085688333
0.14022147760693915
0.13785115008080745
0.13545181962431999
0.13305050389459674
0.1306741968600409
0.1283498688003422
0.12610446630647468
0.12395820072283681
0.12189348502695957
0.11987950368864977
0.11788540360963998
0.11588030800295145
0.11383331639288788
0.11171350461503958
0.1094899248162818
0.10713160545477855
0.10460755129997634
0.10189361975651806
0.09900440596050986
0.09596805084767593
0.09281268609911049
0.08956641970719441
0.08625733597559297
0.08291349551926136
0.0795629352644359
0.07623366844864074
0.07295368462068379
0.06974694823826236
0.06661480978939831
0.06355067621525759
0.060547922243037816
0.05759989891122533
0.05469993356958881
0.05184132987918386
0.04901736781235028
0.04622130365271754
0.04344636999519687
0.04068679638240987
0.03794255960940602
0.03521563894497657
0.03250799217620196
0.029821553401448722
0.027158233030368344
0.02451991778390144
0.02190847069427081
0.019325731104985856
0.016773514670841004
0.014252253634150043
0.011754654791391095
0.009270678033306157
0.006790248074311014
0.004303265858419339
0.0017996086409270886
-0.000730870011582856
-0.003298340221242084
-0.005912995798897555
-0.008585054244107273
-0.01132091184224683
-0.01410518167886839
-0.016914821882668372
-0.019726805708177437
-0.022518130098644493
-0.025265815686031194
-0.027946906791015
-0.03053847142298434
-0.03301760128004504
-0.03536141174901623
-0.03755172963332231
-0.039597033347919766
-0.04151521486821937
-0.043324200452381556
-0.045041940047281535
-0.04668640728850691
-0.048275599500361435
-0.04982753769586291
-0.05136026657674396
-0.052891854533449044
-0.05443850571974107
-0.05600570743050147
-0.05759517767315542
-0.059208653814467764
-0.060847896909920346
-0.06251469170370864
-0.06421084662874305
-0.0659381938066457
-0.06769858904775587
-0.06949391185112617
-0.07132355904936782
-0.0731726704131167
-0.07502135888381355
-0.07684975525984729
-0.07863801402832152
-0.08036631336505252
-0.08201485513457285
-0.08356386489012851
-0.08499359187368054
-0.08628430901590253
-0.08742163746535529
-0.08842160687456393
-0.0893110320779215
-0.09011676416845811
-0.09086567792791998
-0.09158467182676741
-0.09230066587971435
-0.09303929309735773
-0.09382642698373726
-0.09468906663689453
-0.09564780599038636
-0.09668665674572091
-0.09777665182572627
-0.09888880341825906
-0.09999411830421666
-0.10106359785753682
-0.10206823804519935
-0.1029790294272248
-0.1037669571566751
-0.10440300097965233
-0.1048663325760764
-0.10518304088771557
-0.10539587656131177
-0.10554760475453105
-0.10568098521808185
-0.10583877229571297
-0.10606371492421474
-0.10639855663341792
-0.106886035546195
-0.10756888437845909
-0.10847935282568053
-0.10958961769074436
-0.11085048316258712
-0.11221272219715418
-0.11362710234343139
-0.11504438574344573
-0.11641532913226593
-0.11769068383800077
-0.1188211957818013
-0.11975760547785816
-0.120459820078787
-0.12094040495811757
-0.1212306808067465
-0.1213619858417777
-0.12136565287335709
-0.12127300930467119
-0.12111537713194788
-0.12092407294445578
-0.12073040792450473
-0.12056568784744581
-0.12045722490871036
-0.12040938949098073
-0.12041834169901082
-0.12048021349287327
-0.12059113378616755
-0.12074722629906694
-0.12094460934478629
-0.12117939582958129
-0.12144769325274872
-0.12174560370662635
-0.12206872643746632
-0.12240979031557764
-0.12276049522993976
-0.12311253438296847
-0.12345759557012062
-0.12378736117989404
-0.1240935081938278
-0.12436770818650193
-0.12460162732553766
-0.12478692637159705
-0.12491697496291454
-0.12499502583935009
-0.12502786435473884
-0.12502227492850268
-0.12498503657310396
-0.12492292289404648
-0.12484270208987518
-0.12475113695217574
-0.12465498486557526
-0.12456099780774176
-0.12447600183590052
-0.12440727680826529
-0.12436226171514235
-0.12434839035019883
-0.12437309110014273
-0.12444378694472318
-0.12456789545673042
-0.12475282880199576
-0.1250059937393915
-0.1253347916208312
-0.125743375458376
-0.12621712900184265
-0.1267346975489186
-0.12727471228838655
-0.12781579900207088
-0.12833657806483667
-0.12881566444458997
-0.12923166770227829
-0.12956319199188998
-0.1297888360604545
-0.12989179608899482
-0.12988193625298108
-0.12977870044145773
-0.12960153966144153
-0.12936989951299036
-0.12910322018920323
-0.12882093647622014
-0.1285424777532219
-0.12828726799243118
-0.1280747257591107
-0.1279214830178497
-0.12782802452004935
-0.12778902061654737
-0.127799128577072
-0.1278530002643922
-0.12794528213431805
-0.12807061523570093
-0.12822363521043315
-0.12839910721206607
-0.1285921129927239
-0.12879682207932053
-0.12900409720659242
-0.12920361926451834
-0.12938506707074493
-0.12953811894833908
-0.12965245272578724
-0.12971774573699588
-0.1297236748212914
-0.12965991632342005
-0.12951614609354786
-0.12928538174330903
-0.12898009837828225
-0.1286197933317102
-0.12822397292371224
-0.1278121429798276
-0.12740380883101565
-0.12701847531365543
-0.12667564676954585
-0.12639482704590582
-0.12619551949537391
-0.12609352846909777
-0.12608309262129333
-0.12615065557544336
-0.12628264982272647
-0.12646550735974119
-0.12668565968850595
-0.126929537816459
-0.12718357225645832
-0.12743419302678208
-0.12766782965112822
-0.12787256569488226
-0.12804614846751214
-0.12818985097796431
-0.12830497139990452
-0.12839280787461105
-0.12845465804878223
-0.12849181907453638
-0.1285055876094114
-0.12849725981636523
-0.12846813136377572
-0.12842006101992287
-0.12835820339862256
-0.12828890750581767
-0.12821852351897203
-0.12815340112096918
-0.12809988950011256
-0.1280643373501254
-0.12805309287015082
-0.12807250376475185
-0.12812891724391143
-0.12822637447675836
-0.128355410707431
-0.12850165802374655
-0.1286507411096432
-0.12878828415447868
-0.12889991085303104
-0.12897124440549787
-0.1289879075174967
-0.12893552240006498
-0.12879971076966007
-0.1285700594454917
-0.12825942026589265
-0.12788910251849134
-0.12748042704320892
-0.1270547141853867
-0.12663328379578564
-0.12623745523058647
-0.12588854735139
-0.12560787852521685
-0.12541676662450754
-0.12533227480257947
-0.1253464683647259
-0.125442311423693
-0.12560275449763283
-0.1258107476101173
-0.12604924029013823
-0.1263011815721072
-0.12654951999585576
-0.12677720360663547
-0.1269671799551174
-0.12710465088729062
-0.12718808709804996
-0.1272207967055631
-0.12720609437099648
-0.1271472942609365
-0.12704771004738938
-0.1269106549077811
-0.12673944152495778
-0.12653738208718515
-0.12630778828814898
-0.12605496656521922
-0.12578908883742598
-0.1255224683227458
-0.1252674208929796
-0.1250362619253479
-0.1248413063024914
-0.12469486841247066
-0.12460926214876593
-0.12459680091027751
-0.12466979760132545
-0.12483656942770396
-0.12508184884290116
-0.12538174422520537
-0.1257123506489118
-0.12604976269373627
-0.1263700744448137
-0.1266493794926993
-0.12686377093336784
-0.1269893413682145
-0.12700218290405374
-0.12688412056775009
-0.1266508763220276
-0.12633058416107484
-0.1259513962144259
-0.12554146411703487
-0.12512893900927494
-0.12474197153694003
-0.12440871185124383
-0.12415730960881927
-0.12401591397171977
-0.12400678867391149
-0.12411734996208573
-0.12432223489222863
-0.12459606064690991
-0.12491344391411884
-0.1252490008872654
-0.12557734726517855
-0.12587309825210752
-0.12611086855772163
-0.1262652723971096
-0.12631579423273281
-0.12627080303843818
-0.126149256391376
-0.12597011177450518
-0.1257556681949608
-0.12554771295421616
-0.12536744482239887
-0.12523134372149225
-0.12515593545727383
-0.1251577917193151
-0.12524898461035036
-0.1254146333658467
-0.12562997376932036
-0.12587027211769194
-0.1261108405916762
-0.12632703725578218
-0.12649426605831293
-0.12658797683136597
-0.1265836652908329
-0.1264568730363993
-0.1261892059079046
-0.1257981181391913
-0.12531429598045754
-0.12476849218698265
-0.12419150539784045
-0.12361418013589787
-0.123067406807817
-0.12258212170405412
-0.12218930699885877
-0.12191999075027579
-0.12179899385783689
-0.12181392696522422
-0.12193870525892968
-0.12214726810010562
-0.12241360073369785
-0.12271173428844748
-0.12301574577688876
-0.12329975809535045
-0.12353794002395603
-0.12370450622662262
-0.12377701946127961
-0.12375279363376393
-0.12363646701369518
-0.12343273537032998
-0.12314634035671904
-0.1227820695097072
-0.12234475624993352
-0.1218392798818316
-0.12127056559362881
-0.12064358445734688
-0.11996335555627337
-0.11923495657237985
-0.11846351577468102
-0.11765420732356813
-0.11681225126322638
-0.11594291352163598
-0.11505150591057048
-0.11414338612559798
-0.11322395774608011
-0.11229867023517437
-0.11137076534344811
-0.11043004119303759
-0.10946134479839592
-0.10844956092090419
-0.10737962020573588
-0.1062364991818596
-0.1050052202620372
-0.1036708517428267
-0.10221850780457849
-0.1006333485114377
-0.09890505164796604
-0.09705014969315721
-0.09509516628194196
-0.09306668729019381
-0.09099134447757916
-0.08889581548756154
-0.08680682384739528
-0.08475113896813079
-0.08275557614461146
-0.080846996555477
-0.07904675404961564
-0.07734290513077687
-0.07571116497920446
-0.07412727408162557
-0.07256701880855844
-0.0710062314143165
-0.06942079003700714
-0.06778661869853375
-0.06607968730459146
-0.06427601164467107
-0.062356146108682134
-0.060327708405656356
-0.058208413755389155
-0.05601604012537769
-0.05376841136691483
-0.05148339721508623
-0.049178913288774946
-0.046872921090655106
-0.04458342800719612
-0.042328487308660664
-0.04012264637876024
-0.037959106816465915
-0.03582315360123372
-0.03370011153226494
-0.031575351594940876
-0.029434290658433955
-0.027262391475712272
-0.02504516268353639
-0.022768158802464862
-0.02041698023684673
-0.017981066544603443
-0.01547278511111547
-0.012913086843415793
-0.010322983141323423
-0.007723531288452786
-0.005135834452211865
-0.0025810416838051363
-8.034791822899776e-05
0.0023450060257255035
0.004673733445473675
0.006887800145474644
0.00898905358099533
0.0109867413482121
0.012890078026036743
0.014708232309584018
0.016450327010177387
0.01812543905534483
0.01974259948882144
0.02131079347054522
0.022838960276662677
0.024333030269426632
0.025780958767053545
0.027163946219320525
0.02846313548561288
0.029659623541519745
0.0307344614788372
0.031668654505565684
0.032443161945912784
0.03303889724029111
0.0334367279453204
0.03362340153754314
0.033621531952101026
0.03346714480248877
0.033196243529983335
0.03284478569206808
0.03244868296243277
0.032043801130972056
0.031665960103786674
0.031350933903183775
0.031134450667675638
0.03104114643713659
0.03102856385086416
0.031029038482606373
0.030974815258389257
0.030798093220442878
0.03043102552720367
0.02981359704662877
0.028924851364047408
0.02771236575699316
0.026117382414713407
0.024095170833320564
0.021686620178528057
0.01896475426944505
0.016002586705998963
0.012873063022588666
0.009649060688076892
0.006403389105794814
0.0032087896135384684
0.00013793548357526279
-0.0027365680773631246
-0.005354011255380543
-0.007725763789283707
-0.009890365465987212
-0.01188647329140299
-0.01375281233697579
-0.015528175739683922
-0.01725142470203552
-0.0189614884920736
-0.02069736444337468
-0.02249811795504891
-0.024398531982087572
-0.026406928078708578
-0.028521696945357656
-0.03074127903924441
-0.033064182883109
-0.03548898506522724
-0.03801433023940707
-0.04063893112498997
-0.0433615685068471
-0.04618109123538594
-0.04909421887957835
-0.052084318830689584
-0.05512976118839517
-0.058208974754093756
-0.06130045639471619
-0.06438277104272636
-0.06743455169611805
-0.07043449941842163
-0.07336138333869896
-0.0761940406515452
-0.07891392036780344
-0.08151809943651651
-0.08400960050900286
-0.08639152095145629
-0.08866702552643084
-0.09083934691193789
-0.09291178585141052
-0.09488976883198337
-0.09678867594026433
-0.09861306069518326
-0.10036540969850165
-0.10204740850682381
-0.10366057364789898
-0.10520663684793574
-0.1066875457568251
-0.1081054639481422
-0.10946277091914677
-0.11076206209077993
-0.11200614880766901
-0.11319805833812444
-0.11434137606505394
-0.11544200296624975
-0.11650685187443412
-0.11754305305968031
-0.11855795271574575
-0.11955911296007032
-0.12055431183377924
-0.12155154330168086
-0.122559017252268
-0.1235851594977158
-0.12463535015833442
-0.12569514103786594
-0.12674269067339058
-0.1277563589185207
-0.12871472155055413
-0.12959657027047142
-0.1303809127029376
-0.1310469723963008
-0.13157418882259353
-0.1319422173775318
-0.13213828687529186
-0.13219512774125905
-0.1321629024042335
-0.1320920225760428
-0.1320331158921973
-0.13203702591189173
-0.1321548121180051
-0.1324377499170993
-0.13293733063942104
-0.13370526153890006
-0.13478285670640827
-0.13614624531472536
-0.13774687351493045
-0.13953635468451395
-0.14146651812465283
-0.14348940906020624
-0.14555728863971784
-0.1476226339354134
-0.14973329348678616
-0.15242956044798653
-0.15568822290396733
-0.1594309420954575
-0.16360534973202068
-0.1681617255416993
-0.17305295114129857
-0.17823451003637786
-0.18366448762126442
-0.18930357117904426
-0.19511504988156628
-0.20106481478943264
-0.20711527229840532
-0.2131937927441701
-0.21921597785437646
-0.22510000261488475
-0.23076664390032417
-0.2361392804740824
-0.24114389298830996
-0.24570906398391168
-0.24976597789056004
-0.2532484210266861
-0.2560967606945264
-0.25827861022313997
-0.2597736077041284
-0.2605640120646171
-0.2606346841204926
-0.25997308657640156
-0.2585692840257525
-0.2564159429507145
-0.2535083317222159
-0.24984432059995004
-0.2454194110513579
-0.24020087311883143
-0.23414677243628873
-0.22721775256877913
-0.21937705897010426
-0.21059053898282992
-0.2008266418382778
-0.19005641865654369
-0.1782535224464719
-0.16539420810567126
-0.1514631711920628
-0.13648398357908698
-0.12049672750402686
-0.10354411399013473
-0.0856714558450402
-0.06692666776515592
-0.04736026633563357
-0.027025370030393035
-0.005977699212105182
0.015724423867769982
0.038024757853703184
0.06089359744987937
0.08430982468649854
0.10824974282783628
0.13268705324943825
0.15759285543807872
0.1829356469917829
0.2086813236197805
0.2347931791425744
0.2612319054918956
0.2879524653881652
0.3148877300620222
0.3419604739363342
0.3690908539157919
0.39576511507038353
0.421129910693547
0.4448725185887998
0.4667133439207883
0.4864013247166638
0.503713931866048
0.5184607688310618
0.5305024404029351
0.5397367371149122
0.5460900005704029
0.5495171052353266
0.5500014584380946
0.5475550003696132
0.5422182040832896
0.5340600754950238
0.5231781533832137
0.5096927007625716
0.4937162010921148
0.4753756662619536
0.4548265735769152
0.43215220617819283
0.4074885813768837
0.38107220519666657
0.35312921659642194
0.3238753874702747
0.29351612264757065
0.26225337156281914
0.2303219919487987
0.19796318822651177
0.16540783355859293
0.13287643404295363
0.10057912871269525
0.06871568953616891
0.037475521416945545
0.007037662193871407
-0.02242921735901518
-0.05077239293742209
-0.07788449551609013
-0.10368205562870231
-0.12809096825219607
-0.15099551969659453
-0.17236627151247957
-0.1922292877128562
-0.21061380016418854
-0.22755220858636097
-0.2430800805526943
-0.2572322577803163
-0.2700222944958305
-0.28145744054292143
-0.29154809296138806
-0.3003078166444464
-0.30775334433875595
-0.31390457664440224
-0.3187845820149021
-0.3224195967571965
-0.3248390250316637
-0.3260791899211433
-0.32620317854576397
-0.3252863984491439
-0.3234074451660502
-0.32064808208467926
-0.31709324044665665
-0.3128310193470412
-0.3079526857343193
-0.3025526744104077
-0.2967285880306506
-0.29057718812581396
-0.28417314619070144
-0.27758449040466376
-0.2708823950224083
-0.2641412021520818
-0.25743842175525133
-0.2508547316469179
-0.2444677326402306
-0.23826821542976395
-0.23223558962757385
-0.22636308615444364
-0.22066642564155328
-0.21516936996275945
-0.20989454366595464
-0.20486340824727883
-0.2000962615962191
-0.19561223785835563
-0.19142930743323885
-0.18756427697439731
-0.18403278938933407
-0.18084560998369545
-0.17798886873991274
-0.17543838843867088
-0.17316880745942098
-0.17115360043559302
-0.16936507825458982
-0.16777438805779185
-0.1663515132405545
-0.16506527345221145
-0.1638833245960706
-0.16277564134424205
-0.16173307846985194
-0.16075392658465998
-0.1598353321512384
-0.15897327788613635
-0.15816258275987863
-0.15739690199696665
-0.1566687270758776
-0.1559717930909345
-0.15533278887756768
-0.15476892690209573
-0.15427498382960722
-0.15383984713668952
-0.15345248617958793
-0.15310196595157707
-0.15277744708296026
-0.15246818584107
-0.1521635341302674
-0.15185293949194315
-0.15152594510451656
-0.15117288603073462
-0.15078861389208484
-0.15036980555032495
-0.1499132375146819
-0.1494157819314119
-0.14887440658379972
-0.1482861748921597
-0.1476482459138349
-0.14695787434319724
-0.14621241051164777
-0.14541230716236775
-0.14457723443719095
-0.14373444986280817
-0.14291132412465768
-0.1421353235452079
-0.14143401008395554
-0.14083504133742628
-0.14036617053917472
-0.14005524655978524
-0.13993021390686997
-0.14001029171082968
-0.14025860934809073
-0.14061634733955103
-0.14102472984018025
-0.14142507664197587
-0.14175880317396464
-0.14196737540381354
-0.14199080330298586
-0.1417689332578106
-0.14124205848217328
-0.14036309939657932
-0.1391654241988839
-0.13771402223453708
-0.13607397789130993
-0.13431039541040474
-0.13248839888645472
-0.13067313226752314
-0.12892975935510254
-0.12732346380411683
-0.12591944912292147
-0.12477096798942525
-0.12385480725505672
-0.12311767828033855
-0.12250624005953953
-0.12196717144035725
-0.12144717112392002
-0.12089295766478604
-0.12025126947094643
-0.11946886480381995
-0.11849252177825681
-0.11727807841453193
-0.11583924353774268
-0.11421254141072947
-0.11243457131953147
-0.11054195240361729
-0.1085713236558882
-0.10655934392267419
-0.1045426919037355
-0.10255806615226291
-0.10064218507487957
-0.09882610714712832
-0.09710450668098758
-0.09545771751068369
-0.09386606661777626
-0.0923099016636591
-0.09076959016315696
-0.08922551948452392
-0.08765809684944761
-0.086047749333043
-0.08437492386385671
-0.08262283323526583
-0.08079233794061923
-0.07889128428950062
-0.0769275555916133
-0.07490905501009053
-0.07284370556149843
-0.07073945011583088
-0.06860425139651319
-0.06644609198040016
-0.06427297429777973
-0.06209166094530676
-0.05990083523998908
-0.05769599525617776
-0.05547265096565491
-0.053226332193630266
-0.05095258861874503
-0.048646989773069735
-0.04630512504210814
-0.04392260366479191
-0.04149505473348388
-0.03901945072987013
-0.03650130695419046
-0.03394953620293506
-0.03137307958094167
-0.02878089804647724
-0.02618063621024779
-0.02357521567981118
-0.02097396595755229
-0.018387128986995228
-0.015824927036919914
-0.013295556292319315
-0.010794252682810042
-0.00831109679302262
-0.005836136569364382
-0.0033594002834923683
-0.0008708965323171104
0.00163938576199916
0.004181477352038051
0.006765428665131945
0.009401309803359313
0.012096927987622127
0.014845365438846922
0.017633864036978305
0.020449670421156647
0.023280050905270785
0.026112291477953267
0.028933697802587505
0.031731595217302636
0.03449332873497713
0.037206263043232324
0.03985886158841165
0.04244658899048523
0.044967708184542696
0.04742050891184054
0.049803300588385765
0.05211441230493177
0.05435219282698022
0.056515010594777045
0.058601253723318064
0.06060933000234589
0.0625397484302104
0.06440652596566174
0.06622907525593823
0.06802684253519639
0.06981929371234051
0.0716259143710198
0.07346620976963344
0.07535970484132704
0.07732594419399412
0.07938449211027299
0.08154975668604537
0.08380257368520198
0.08611039068925587
0.0884406399702529
0.09076077347498808
0.09303826282500377
0.09524059931658947
0.09733529392078012
0.0992898772833607
0.10107189972486172
0.10265443803055566
0.10404638445654951
0.10527095880824806
0.10635143820614336
0.1073111194454756
0.10817331899622973
0.10896137300314064
0.10969863728568961
0.11040848733810542
0.1111143183293628
0.11183622434385974
0.11257269945379643
0.11331361628642582
0.11404886985488649
0.11476837788531395
0.11546207775629098
0.11611992651997691
0.1167319009032781
0.11728799730784843
0.11777823181008897
0.11819346712048091
0.11852997798121734
0.1187862203362634
0.11896067558440604
0.11905184479917877
0.11905824872886314
0.11897842779648726
0.11881094209982695
0.11855437141140544
0.11820731517849267
0.11776835218787458
0.11723581747437763
0.11660796000226908
0.11588304812548533
0.1150593698727117
0.11413523294737919
0.1131082281687928
0.111970375777353
0.1107202619084698
0.10935832824728656
0.10788637231906342
0.10631515206162842
0.10465901756474671
0.10293231219213665
0.10114936277377312
0.09932447960588489
0.0974719564509586
0.09560607053773404
0.09374108256120714
0.09189123668262848
0.0900689092968678
0.08827433200997076
0.08650283744493491
0.0847497283139623
0.08301029079551223
0.08127979453429765
0.07955349264128715
0.07782662169370363
0.07609440173502839
0.07435203627499584
0.07259387751786794
0.07080878358384081
0.06898338782761021
0.0671043009711064
0.06515811720251652
0.0631314141762824
0.061010753013103824
0.05878267829993311
0.056433718089978845
0.053950383902704034
0.05132264800067595
0.04856331891279197
0.04569441469720029
0.04273796256523283
0.03971597319448006
0.03665044072878468
0.033563342778245256
0.030476640419215304
0.02741227819430699
0.024392184112384023
0.021435313957414256
0.018541151546710672
0.01570129848016189
0.012907317748893091
0.010150755810285883
0.00742314258797584
0.004715991471857898
0.0020207993180784596
-0.0006709535509594805
-0.003367803346598557
-0.0060775358652327
-0.008802897169511745
-0.01154460273221958
-0.014303378768725727
-0.017079968028140338
-0.019875129793321965
-0.02268963988087262
-0.02552429064114001
-0.028379890958213198
-0.03125726624992904
-0.0341562729539332
-0.037070276625562754
-0.03999002095223938
-0.04290625863184376
-0.04580975889600024
-0.048691307510078385
-0.051541706773189984
-0.05435177551819375
-0.05711234911169244
-0.05981427945403481
-0.06244956106656215
-0.06501765235257485
-0.06752105900881668
-0.06996232823932767
-0.07234402610065917
-0.07466873518311055
-0.07693905461072433
-0.07915760004128912
-0.08132700366633498
-0.08344991421113936
-0.08552987140497408
-0.08757622387106508
-0.08960069194641876
-0.0916150193243393
-0.09363096623187482
-0.09566030942981907
-0.09771484221270699
-0.09980637440882188
-0.10194673238018996
-0.10414775902258333
-0.10641799896958566
-0.1087440221360784
-0.11110346057219768
-0.11347393671796689
-0.11583308954715063
-0.11815857456726049
-0.12042806381955283
-0.12261924587902848
-0.12470982585443079
-0.12667752538825028
-0.12850377598857018
-0.13019456681472916
-0.13176591043666527
-0.1332338654043822
-0.13461450680163076
-0.13592389919429076
-0.13717846759115676
-0.13839498420976765
-0.1395902222662315
-0.1407809511600983
-0.14198204662659544
-0.14319580332973145
-0.14441937632165508
-0.14564990160696636
-0.14688451137370911
-0.14812033399336721
-0.14935449402086942
-0.1505841121945857
-0.15180630543632934
-0.15301818685135443
-0.15421561885147442
-0.15538614879183554
-0.15651392157093857
-0.15758306811286546
-0.15857771552514177
-0.15948198709873507
-0.16028000230805592
-0.1609558768109559
-0.1614937224487304
-0.16187764724611708
-0.16209771832680125
-0.1621838082782419
-0.16218208787674193
-0.16213877318453568
-0.16210007644730154
-0.16211220609415913
-0.16222136673767157
-0.16247375917384335
-0.1629155803821226
-0.16359302352539853
-0.164542087470241
-0.16573062698692903
-0.16709854971962426
-0.16858567467664012
-0.1701318170497321
-0.17167678821409804
-0.17316039572837807
-0.1745224433346558
-0.17570273095845618
-0.17664105470874683
-0.17728779638573147
-0.1776642539948923
-0.1778208463190542
-0.17780807741262997
-0.1776764475134755
-0.17747645304288864
-0.17725858660561034
-0.17707333698982294
-0.17697118916715243
-0.17700262429266644
-0.17720907328884922
-0.17757128213391332
-0.17804503775741873
-0.17858604634977496
-0.17915001028483502
-0.17969262811989373
-0.1801695945956883
-0.1805366006363987
-0.18074933334964716
-0.18076347602649853
-0.18054413962435858
-0.18011979509861173
-0.17954500983886895
-0.17887444137789157
-0.17816274555862768
-0.17746457429402818
-0.1768345756668752
-0.17632739394339203
-0.175997669573246
-0.17590003918954597
-0.17607898175656211
-0.17651064791311744
-0.17714300597397098
-0.17792393224270567
-0.1788012992063483
-0.17972297553536676
-0.18063682608367135
-0.18149071188861637
-0.18223249017099696
-0.18281001433505134
-0.18317880518354637
-0.1833460801652491
-0.18334040559486203
-0.18319041131101158
-0.18292472333576648
-0.18257196387463803
-0.1821607513165802
-0.18171970023398865
-0.18127742138270225
-0.18086252170200218
-0.18050032937375063
-0.18019406233799112
-0.17993779162927645
-0.17972555541161964
-0.17955138803247592
-0.17940932002274337
-0.17929337809676232
-0.17919758515231546
-0.1791159602706281
-0.17904251871636795
-0.1789719780166114
-0.1789038255620729
-0.17883952209694184
-0.1787805307092234
-0.17872828861786597
-0.17868418707157324
-0.17864961168307206
-0.17862594771159707
-0.17861458006289066
-0.17861689328920297
-0.17863386887365115
-0.17866376095469355
-0.17870369224446844
-0.17875078145282863
-0.17880214693613472
-0.17885490669725498
-0.1789061783855654
-0.17895307929694965
-0.17899272637379937
-0.17902223620501376
-0.17903905368873663
-0.17904285242618365
-0.1790342315221144
-0.17901379273705653
-0.1789821374780457
-0.17893986679862495
-0.17888758139884536
-0.17882588162526558
-0.17875536747095214
-0.17867663857547916
-0.17859044628775902
-0.17849857455316365
-0.1784032366167138
-0.17830664677689387
-0.17821101897869607
-0.17811856681362032
-0.1780315035196742
-0.17795204198137318
-0.17788239472974038
-0.1778247739423067
-0.1777810816969157
-0.1777511123130468
-0.17773378194284534
-0.17772800348894663
-0.17773268950049367
-0.17774675217313732
-0.1777691033490361
-0.17779865451685622
-0.17783431681177178
-0.17787500101546447
-0.1779193366066929
-0.17796403820729711
-0.17800502149135133
-0.17803819912513202
-0.17805948342142347
-0.17806478633951764
-0.17805001948521426
-0.17801109411082072
-0.17794392111515228
-0.17784441104353188
-0.17770968965883258
-0.17754517885847954
-0.17735975180432248
-0.17716224801117614
-0.17696149765491193
-0.17676633055790872
-0.1765855761890534
-0.17642806366374067
-0.1763026217438725
-0.1762180788378591
-0.17618169820912585
-0.17619004588920092
-0.1762352129182359
-0.1763092748889143
-0.17640430704042734
-0.17651238425847396
-0.176625581075261
-0.17673597166950267
-0.17683562986642137
-0.176916629137747
-0.17697209311982245
-0.17700233777528013
-0.17701069176615533
-0.17700049363976034
-0.1769750815899152
-0.17693779345694768
-0.17689196672769328
-0.17684093853549532
-0.1767880456602047
-0.17673662452818012
-0.1766889949874451
-0.17664050763950873
-0.17658358928766316
-0.17651065637431354
-0.1764141249883732
-0.17628641086526264
-0.17611992938691054
-0.17590709558175305
-0.1756403241247344
-0.175312029337306
-0.17491730101250688
-0.17446960745630014
-0.17399013746438718
-0.1735001061025278
-0.17302072808298968
-0.17257321776454737
-0.1721787891524841
-0.17185865589859037
-0.17163403130116472
-0.1715261283050129
-0.17155244259471258
-0.17170489955114207
-0.1719646672136667
-0.17231287590384445
-0.17273065558974093
-0.17319913588593025
-0.17369944605349344
-0.17421271500001956
-0.17472007127960515
-0.17520264309285535
-0.17564374120260523
-0.1760417168761852
-0.17640125750743252
-0.17672707230689016
-0.17702387013160892
-0.17729635948514721
-0.17754924851757178
-0.17778724502545656
-0.17801505645188326
-0.17823700929229636
-0.17845495322806726
-0.1786589678694962
-0.17883375050315736
-0.17896396802167033
-0.17903427610634523
-0.17902931922718235
-0.17893373064287224
-0.1787321324007956
-0.1784091353370238
-0.17794933907631771
-0.17734219803414528
-0.17661078979224806
-0.17579239051430573
-0.17492431559443086
-0.17404386921542572
-0.17318834434878363
-0.17239502275468635
-0.17170117498200768
-0.17114406036831123
-0.17076092703985
-0.17058284690271708
-0.17059819982113972
-0.1707772972035911
-0.17109037468485583
-0.1715076566884082
-0.17199935642641265
-0.1725356758997248
-0.17308680589788958
-0.173622925999142
-0.17411420457040866
-0.17453361005691137
-0.1748735933353343
-0.17513487206448108
-0.17531825434610804
-0.17542455391139702
-0.1754545727222185
-0.1754091013960015
-0.17528891933886484
-0.17509479474561795
-0.1748274845997602
-0.1744888490565398
-0.1740884765149107
-0.17363922781429655
-0.1731539644926957
-0.17264553687679743
-0.1721267840819811
-0.17161053401231605
-0.17110960336056213
-0.17063679760816944
-0.17020491102527813
-0.1698248151556754
-0.16949407368066702
-0.1692045896635681
-0.16894823431921507
-0.1687168676511348
-0.168502338451544
-0.16829648430134994
-0.1680911315701501
-0.16787809541623216
-0.1676491797865739
-0.16739699298468821
-0.16711981426380326
-0.16681832928458715
-0.16649322139091483
-0.16614516271535174
-0.16577481417915374
-0.16538282549226666
-0.16496983515332656
-0.16453647044965986
-0.1640833474572834
-0.1636121573643152
-0.16313216071438436
-0.16265583674324993
-0.16219566544281874
-0.16176411559368759
-0.16137364476514343
-0.16103883797251223
-0.16077767567294096
-0.16060129752757155
-0.16052046373963155
-0.1605406938636628
-0.16063040392508685
-0.16074222414133113
-0.16082880487419562
-0.1608428758302936
-0.16073724606105502
-0.16046480396272386
-0.15997851727636067
-0.15923143308783969
-0.15817667782785202
-0.15677777268007695
-0.155070529910377
-0.1531216959064283
-0.1509982123484158
-0.14876710026133996
-0.14649546001501648
-0.14425047132407656
-0.14209939324796564
-0.14010956419094547
-0.13834840190209285
-0.1368721044210527
-0.13565772578133506
-0.13464850082038657
-0.133787615437093
-0.13301833487515424
-0.13228400372308738
-0.13152804591422243
-0.13069396472670655
-0.12972534278350026
-0.12856584205238136
-0.12716695514658002
-0.12553468870086693
-0.12369845341757547
-0.12168782823250054
-0.11953247142625
-0.11726212062424744
-0.11490659279673146
-0.11249578425875773
-0.11005967067019484
-0.10762830703572794
-0.10522832891530258
-0.1028618413586882
-0.1005204687874511
-0.09819587444290126
-0.09587980091116304
-0.09356407012317888
-0.0912405833547036
-0.0889013212263082
-0.086538343703378
-0.08414379009611637
-0.08171103302887386
-0.0792416541963673
-0.0767407906365224
-0.07421359486163218
-0.07166527717518653
-0.06910112722457769
-0.06652651400201173
-0.06394688584451363
-0.06136777043391995
-0.05879477479688368
-0.05623303446005156
-0.05368387741172939
-0.051147038429056324
-0.04862232512555189
-0.04610945132306465
-0.043605355758922576
-0.041110790644266926
-0.03862809556405461
-0.036159467354074167
-0.033706960100943685
-0.03127266272525656
-0.0288597764592345
-0.026471900610549933
-0.024112493856828537
-0.02178487212652983
-0.019492208598940672
-0.017237533704179884
-0.01502373512319563
-0.012853557787769851
-0.010729603880512181
-0.008654673586036055
-0.006633836418206647
-0.004673060009320384
-0.0027781733491750622
-0.0009548626783999469
0.0007913285115456397
0.0024549994783694532
0.0040308922289512125
0.00551389151933881
0.006899024854750321
0.008182092759012848
0.009363507106017289
0.010445753543743011
0.011431468140630107
0.012323429714287055
0.013124559831492813
0.013837922808195286
0.01446672570951186
0.015014318349728746
0.015484193292302141
0.015878017082923374
0.016183618246346253
0.016382917998793912
0.016457956105562232
0.01639091508111672
0.01616412018909167
0.015760039442291172
0.015161283602688657
0.014350606181426629
0.013310903438816824
0.012029094020782621
0.010519833630462027
0.008809878757608792
0.006926176801051859
0.0048942873454623295
0.002739167791095296
0.0004905906243370646
-0.001821532306767383
-0.004167336849566593
-0.0065170065468043254
-0.008843309215133734
-0.01113713080540495
-0.013397246857455736
-0.015622512404974712
-0.017811830177044276
-0.01996415059814209
-0.022078471788137488
-0.024153839562297143
-0.0261893474312808
-0.0281841366011443
-0.03013935912632175
-0.03207022245127919
-0.03399806909885149
-0.035944314139549655
-0.03793042033927596
-0.039977898159329554
-0.04210830575640393
-0.04434324898258819
-0.04670438138536144
-0.049213404207601716
-0.05188721413903749
-0.054708078054291426
-0.057643219334595035
-0.060659847026698945
-0.06372521787274689
-0.06680663631027876
-0.06987145447222486
-0.07288707218691345
-0.07582093697806677
-0.07864054406480184
-0.08131843802201337
-0.08386301347947224
-0.08629832663574771
-0.08864860499228303
-0.09093814332243016
-0.0931912857240398
-0.09543242472729051
-0.09768600056149374
-0.09997650115135198
-0.10232846211696564
-0.10476178012694187
-0.10726279852378774
-0.10980324440174406
-0.11235551598991082
-0.11490529129712966
-0.11742897281527971
-0.11989736473069709
-0.1222814764905739
-0.12455252280295494
-0.12668192363673825
-0.1286451647457772
-0.13044565946258208
-0.132099141815837
-0.13362160190988678
-0.1350292351099271
-0.13633844204200854
-0.1375658285930344
-0.13872820591076182
-0.13984259040379834
-0.14092620374160703
-0.14199451281476322
-0.14304909229777107
-0.1440855524560845
-0.14509968276523608
-0.14608747796161076
-0.14704513804244687
-0.1479690682658347
-0.1488558791507186
-0.14970238647689593
-0.15050561128501663
-0.15126303276624692
-0.15197415717414064
-0.15263949444514746
-0.15325976317040146
-0.15383588720188976
-0.154368995652452
-0.1548604228957813
-0.1553117085664239
-0.15572459755977913
-0.1561010400320987
-0.15644459876346736
-0.15676919655815305
-0.15709341816737785
-0.15743607267364135
-0.15781617442029658
-0.15825294301154982
-0.15876580331246024
-0.15937438544893942
-0.16009852480775263
-0.16095826203651847
-0.16196946626093803
-0.16311658089114534
-0.1643703529755737
-0.16570167494154783
-0.16708164447724588
-0.16848156453169782
-0.16987294331478883
-0.17122749429725548
-0.17251713621068832
-0.17371399304752988
-0.17479712821157156
-0.17579455587245313
-0.17675594895255675
-0.17774720625677107
-0.17932392197591118
-0.18169557153858962
-0.18480266461661815
-0.18858859177288836
-0.19299962446138044
-0.19798491502715557
-0.2034908496283068
-0.20942575323194534
-0.21568278724286638
-0.22215791519550374
-0.2287499815153777
-0.23536071151908344
-0.24189471141430874
-0.24825946829982196
-0.2543653501654775
-0.2601256058922062
-0.26545824297692083
-0.27029778535894844
-0.274587655932232
-0.27827418492316575
-0.2813065834492333
-0.2836369435190001
-0.285220238032116
-0.28601432077931177
-0.2859799264424054
-0.2850806705942961
-0.28328550034853933
-0.2805840681864717
-0.27697677959985373
-0.27246691970783027
-0.26706064062896734
-0.2607669753438553
-0.25359783772416206
-0.245568022532641
-0.2366952054231257
-0.22699994294054432
-0.21650025676799567
-0.2051775956214486
-0.19299882712067185
-0.17993362204254615
-0.16595453205501895
-0.15103698971712612
-0.13515930847898155
-0.11830268268180266
-0.10045118755787044
-0.0815917792305556
-0.0617202673644793
-0.04087892309592778
-0.01913221400155464
0.0034524249028683156
0.026804677710493833
0.050851347623361264
0.07551635695245712
0.10072074711767276
0.12638267864782965
0.15241743118062934
0.17874245270985423
0.20530921218366932
0.23208267607415126
0.2590250038286257
0.2860954740033697
0.3132504842635645
0.34044355138331983
0.3675710265407801
0.3939010934999113
0.4190120607971504
0.442658522200841
0.4645995348152485
0.4846095306102504
0.5024870065930219
0.5180545644354759
0.5311589104742372
0.541670855710684
0.549485315810919
0.5545213111057774
0.5567219665908213
0.5560528726144024
0.5524917050104058
0.5460348947223191
0.5367029529174285
0.5245404954277412
0.5096162427500003
0.4920230200456715
0.47187775714097807
0.44932148852685005
0.42451935335895774
0.3976648078786012
0.36900634735558674
0.3388303594739236
0.3074473999831257
0.2751921292974259
0.24242331249583082
0.20947500715637662
0.1764493021089645
0.14353152225834273
0.11091707958553948
0.07878957775797166
0.04731496886488528
0.01664529767494748
-0.01307829390786183
-0.04172555287490389
-0.06917711511296043
-0.095324505404181
-0.1200701374261072
-0.1433273137516288
-0.16502022584904966
-0.18508857415375204
-0.20351698499779627
-0.22031618685063395
-0.23550786793706124
-0.24912460537724537
-0.26120986518674133
-0.27181800227646813
-0.28101426045274236
-0.2888747724172565
-0.2954865597670869
-0.30094094748937444
-0.30529155480031506
-0.3085811393720512
-0.31085847335872224
-0.3120385332054087
-0.312124408587057
-0.3111884906964975
-0.30929884545595765
-0.3065192135170642
-0.3029090102608385
-0.29852824590078764
-0.29346896931411487
-0.2878352057586346
-0.28172675229998123
-0.2752390896911114
-0.2684633714463771
-0.2614864241467335
-0.2543907490525718
-0.24725452215369859
-0.2401515941693175
-0.233149861597753
-0.2263008369281004
-0.21964629486753898
-0.21322365915541175
-0.20706602826048015
-0.2012021753808818
-0.19565654844416755
-0.1904492701072839
-0.18559613775656122
-0.18110862350774062
-0.1769927289525574
-0.17324163873868212
-0.1698403954487135
-0.16676969815819528
-0.16400592067207914
-0.16152111152471219
-0.15928299397983078
-0.15725312608393455
-0.15538746211843227
-0.15366113525971697
-0.15205354116221056
-0.15055514592335176
-0.14916154376060958
-0.1478686164333899
-0.14667250985584393
-0.14556963409687515
-0.14455666338013512
-0.1436305360840215
-0.14278845474168395
-0.14202788604101774
-0.14134557979908885
-0.14073125259010622
-0.14017159594346926
-0.1396535496279674
-0.13916431756713848
-0.13869136783926797
-0.13822243267739132
-0.13774550846929137
-0.13724885575750034
-0.13672099923929934
-0.136153557083387
-0.13555949146663335
-0.13496154348346148
-0.13438276471229893
-0.13384647088632226
-0.13337624189345623
-0.13299592177637493
-0.13272961873250083
-0.1326017051140045
-0.13263681742780595
-0.13285320804931688
-0.13321978064117868
-0.13368327800564264
-0.13419059722096452
-0.1346888995201509
-0.1351256102909561
-0.13544841907588193
-0.1356052795721797
-0.1355444096318507
-0.1352142912616423
-0.1345721373334627
-0.1336387094907564
-0.13246367824484687
-0.13109711949652958
-0.12958937330134776
-0.12799104386959342
-0.1263529995663087
-0.12472637291128233
-0.12316256057905314
-0.1217132233989071
-0.12042406377585038
-0.11929446253571671
-0.11830294888331387
-0.11742565588539965
-0.11662337881884095
-0.11586773108517355
-0.11513306196754562
-0.11439374099888473
-0.11362415796190374
-0.11279872288909817
-0.11189506871646668
-0.1109148641400713
-0.10987069878514749
-0.10877523694693979
-0.1076411631704789
-0.10648118225057414
-0.10530801923182091
-0.10413441940859701
-0.10297314832505998
-0.10183699177515428
-0.1007362289128747
-0.09966218038870012
-0.09859755926173853
-0.09752504399579767
-0.09642732727539698
-0.09528712198186927
-0.09408716124632613
-0.0928101984496665
-0.09143900722256765
-0.08995638144549269
-0.08834852549143091
-0.08662716819958247
-0.08481566749398756
-0.0829374602265201
-0.08101600349883237
-0.07907477466236469
-0.07713727131833473
-0.07522701131774708
-0.07336753276138884
-0.07158239399982547
-0.06989130609395018
-0.06828485858035702
-0.06674037813133743
-0.06523514411263807
-0.06374645613978164
-0.06225163407807907
-0.06072801804262344
-0.05915296839828548
-0.057503865759723605
-0.05575811099137968
-0.053895650555557104
-0.05191551028108153
-0.04982543573702606
-0.04763323725986217
-0.04534674543584463
-0.04297381110100469
-0.04052230534116211
-0.03800011949191965
-0.035415165138656834
-0.0327753741165432
-0.030088638626602927
-0.027362418438633313
-0.024603986657997495
-0.02182063557448368
-0.019017221199922607
-0.016195686116528992
-0.01336429588469447
-0.01053158758444658
-0.007706082640332518
-0.004896286821433809
-0.002110808313528541
0.0006408663677959496
0.003348857162729048
0.00600329754712885
0.008594336652332571
0.011112139265139686
0.013546885827830944
0.015888772438151597
0.01812801084931906
0.02025482847002893
0.022263099463361812
0.02417425098499356
0.026022348004006893
0.027841536932531323
0.029665979838177745
0.031529854444021746
0.033467354128609406
0.03551268792596716
0.03770008052558563
0.04006377227242675
0.04263201926317233
0.04538751796224738
0.04829206116276907
0.0513073476147009
0.054395091723478214
0.057517023550014444
0.060634888810689305
0.0637104488773529
0.06670548077733399
0.0695817771934254
0.07230570368392088
0.07487831408206687
0.07731661505472828
0.07963771300583733
0.08185872999479253
0.08399680373646361
0.08606908760119827
0.08809275061480819
0.09008497745858451
0.09206296846928427
0.09404201998408618
0.0960228150972664
0.09799931902922031
0.09996547691526564
0.10191524954619725
0.10384261336827497
0.10574156048323673
0.10760609864828778
0.1094302512761048
0.11120805743484098
0.11293357804131117
0.11460093693993005
0.11620429449709495
0.11773781693900535
0.11919568009388502
0.12057207401452404
0.12186120242191499
0.12305728453260095
0.12415455521859314
0.1251472650073744
0.12603137226531438
0.12681578821005948
0.12751541121728593
0.12814518739848235
0.12872007852061002
0.12925506200610393
0.12976513093286807
0.13026529403427933
0.13077057569918724
0.13129601597191126
0.13185413855098221
0.13243809362312967
0.13303208495491567
0.13362028353195698
0.13418687599534096
0.13471606464162772
0.1351920674228485
0.1355991179465063
0.1359214654755763
0.13614337492850487
0.13625055690779406
0.13623970605753796
0.13611260957050242
0.1358710978983212
0.1355170171481011
0.13504848604544092
0.1344650110675555
0.13377063768713537
0.1329693993607498
0.13206531743932248
0.131062839506614
0.12996976856421602
0.12879545639575182
0.12754925121669475
0.12624048913687264
0.12487849416047314
0.12347257818604111
0.12203204100647444
0.1205661703090335
0.11908424167532988
0.1175934560979179
0.11608513181123024
0.11454320844063709
0.11295157297298707
0.11129410028948541
0.10955465316568998
0.10771708227152164
0.10576522617125199
0.10368291132351423
0.10145395208129941
0.09906646228037883
0.09654177478369977
0.09391665639107567
0.0912279472922942
0.08851247557150874
0.08580705720722154
0.08314849607229793
0.08057358393395964
0.07811910045377969
0.07582181318769447
0.07371213121748539
0.07177145819350486
0.0699583814867455
0.06823134938855617
0.06654879808464786
0.06486915165508934
0.06315082207429906
0.061352209211060355
0.05943170082851239
0.057347672584144686
0.055064221239951125
0.052589763065623595
0.049953365358129484
0.04718419904350536
0.04431142294213708
0.04136418376877507
0.03837161613252669
0.0353628425368486
0.03236697337956468
0.029413106952846123
0.02652722076492696
0.02371120358522718
0.020955694221212795
0.01825125605903701
0.015588440379210014
0.012957786356591906
0.010349821060409088
0.007755059454235628
0.0051640043960097986
0.0025671466380263507
-4.3599372065173444e-05
-0.0026651929955806
-0.005289399130654951
-0.007907958953462389
-0.010512621292615047
-0.013095146989390929
-0.015647308990703726
-0.018160892349110756
-0.020627694222818512
-0.02303952387567012
-0.0253898633082413
-0.02768510997754771
-0.029937712932743922
-0.03216016775795415
-0.03436498214293811
-0.036564675883099494
-0.03877178087949122
-0.04099884113880243
-0.043258412773365854
-0.045563064001163195
-0.047923379618215065
-0.05033442578626183
-0.052784001393121706
-0.05525987569122805
-0.05774983003866429
-0.06024165789914997
-0.06272316484204803
-0.06518216854237058
-0.06760649878076468
-0.06998399744352798
-0.0723032749766567
-0.07455885081187609
-0.07674802425080071
-0.07886812266431328
-0.08091648552893942
-0.0828904644268527
-0.08478742304586318
-0.08660473717943033
-0.08833995585370932
-0.0899915348293794
-0.09155868961227875
-0.09304691009965355
-0.09446465374964688
-0.09582039311248988
-0.09712259860221062
-0.09837973849664575
-0.0996002789374312
-0.10079268393000577
-0.10196541534361463
-0.10312693291130268
-0.10428483368269734
-0.105439982403642
-0.10659007400263702
-0.10773278278816052
-0.10886578093249014
-0.10998673847170684
-0.11109332330569759
-0.11218320119814815
-0.11325403577655112
-0.11430348853219945
-0.11532940460535224
-0.11633108235295418
-0.11730850393885084
-0.11826165341649678
-0.1191905127031519
-0.12009506157987573
-0.12097527769153414
-0.12183113654679348
-0.12266261151812317
-0.12346967384179777
-0.12425279474722624
-0.12501638317359864
-0.12576670545354232
-0.12651003676028144
-0.1272526501308451
-0.1280008164660639
-0.12876080453057137
-0.12953888095280564
-0.1303413102250063
-0.1311743547032158
-0.13204258310087577
-0.13293726835471775
-0.1338433981975555
-0.13474592092284837
-0.1356297826878589
-0.13647992751365426
-0.13728129728510283
-0.13801883175087606
-0.13867746852344995
-0.13924214307910163
-0.13969966912356646
-0.1400516601953341
-0.14030673339007194
-0.14047354550033686
-0.14056075118248834
-0.14057700295668837
-0.14053095120690295
-0.14043124418090028
-0.14028652799025182
-0.14010544661033192
-0.13989694806885533
-0.1396723924574564
-0.13944428142756518
-0.1392251128622411
-0.1390273755838407
-0.13886355565211136
-0.13874613583361506
-0.13868759656370938
-0.13870041614155415
-0.13879707073011338
-0.13898764670478544
-0.13926337173574913
-0.13960652179897756
-0.1399993166785831
-0.14042397402248147
-0.14086270934239178
-0.14129773601383547
-0.14171126527613712
-0.14208550623242475
-0.14240266584962863
-0.14264722235585933
-0.14282163536726905
-0.1429369094319735
-0.14300409888165688
-0.14303425591180635
-0.1430384305817121
-0.14302767081446735
-0.1430130223969683
-0.14300552897991395
-0.14301623207780637
-0.1430548947554643
-0.1431211652964853
-0.14320987690822956
-0.14331583125858705
-0.14343382787925057
-0.1435586641657164
-0.14368513537728322
-0.14380803463705305
-0.14392215293193056
-0.14402227911262389
-0.14410331871928578
-0.14416110196609747
-0.1441914411349589
-0.14419028616190702
-0.1441537675373506
-0.14407801498311507
-0.1439591574524418
-0.1437933231299891
-0.14357663943183158
-0.1433052330054596
-0.1429767986701044
-0.14260150231665342
-0.14219546133579333
-0.14177482912765094
-0.14135575832376873
-0.1409544007871063
-0.1405869076120389
-0.14026942912435839
-0.1400181148812734
-0.13984911367140843
-0.13977587373399059
-0.13979034635535573
-0.13987420860364333
-0.1400090729413023
-0.14017655106219767
-0.14035825389161083
-0.14053579158623986
-0.14069077353419915
-0.14080480835501893
-0.14085950389964674
-0.14083906599158852
-0.1407484251810449
-0.1406024301302648
-0.14041599071475036
-0.1402040160414201
-0.13998141444860937
-0.1397630935060692
-0.13956396001496757
-0.13939892000788853
-0.13928287874883272
-0.13922853320526474
-0.13923094530949273
-0.13927672503551383
-0.1393524284809328
-0.13944461097477068
-0.13953982707746496
-0.1396246305808696
-0.1396855745082547
-0.13970921111430704
-0.13968209188512948
-0.1395928742208859
-0.13944707096079473
-0.13925828369827342
-0.1390401643787726
-0.1388063641791589
-0.13857053350771573
-0.13834632200414285
-0.13814737853955614
-0.1379873512164883
-0.13787988736888782
-0.13783634403603984
-0.13784972832872233
-0.13790422913510797
-0.13798399465500158
-0.1380731874741943
-0.13815596999802165
-0.1382165038632363
-0.13823894993800628
-0.13820746832191672
-0.1381062183459692
-0.13792185974025487
-0.1376611296075381
-0.13734042682243366
-0.13697621123737186
-0.13658494193619994
-0.13618307723418135
-0.13578707467799564
-0.1354133910457392
-0.13507848234692454
-0.13479880382248063
-0.1345886303155992
-0.13444471026896498
-0.13435534549986305
-0.13430878278465225
-0.13429326813110806
-0.13429704677842233
-0.13430836319720313
-0.13431546108947506
-0.13430658338867926
-0.13426997225967266
-0.13419527055985192
-0.13408340748876316
-0.13394075844632292
-0.1337737332602688
-0.13358874098975437
-0.13339218992534993
-0.13319048758904214
-0.13299004073423376
-0.13279725534574438
-0.1326185366398094
-0.13245892681304872
-0.13231247799921247
-0.13216793095992688
-0.13201399118261142
-0.1318393633861023
-0.13163275152065146
-0.13138285876792768
-0.13107838754101583
-0.13070803948441745
-0.13026049930186814
-0.12972688617006514
-0.12912541491732232
-0.1284877124182822
-0.12784548412062582
-0.1272304299732269
-0.12667424442614975
-0.1262086164306505
-0.1258652294391762
-0.12567576140536532
-0.12567188478404775
-0.12587901162744625
-0.12627192454571254
-0.1268008686135552
-0.1274159222432464
-0.1280671583482486
-0.12870464434321613
-0.12927844214399367
-0.12973860816761917
-0.13003519333232044
-0.13011824305751662
-0.12994534944584554
-0.1295353227962995
-0.12893667764324712
-0.1281981192756057
-0.1273683474834829
-0.12649605655817858
-0.12562993529218447
-0.12481866697918169
-0.12411092941404482
-0.12355539489283869
-0.12319433740166338
-0.12301811543196442
-0.12299185694621702
-0.12308051686401367
-0.12324904460613842
-0.12346238409456609
-0.12368547375246286
-0.12388324650418701
-0.12402062977528742
-0.12406254549250448
-0.12397886798793133
-0.1237797906470354
-0.12349512373289875
-0.1231548030553252
-0.12278875892530972
-0.12242691615503894
-0.12209919405789073
-0.12183550644843426
-0.12166576164242993
-0.12161986245682971
-0.1217227621340178
-0.12195913030344588
-0.12229400401247532
-0.12269227894989414
-0.12311884089097622
-0.1235385698688322
-0.12391634030258787
-0.12421702107478555
-0.12440547556913577
-0.12444656167054015
-0.1243098158277859
-0.12400299153357905
-0.12355248786061991
-0.12298482430540074
-0.12232651486560392
-0.12160406804010454
-0.1208439868289686
-0.12007276873345282
-0.11931690575600622
-0.11860288440026844
-0.11795511467606862
-0.1173810737406576
-0.1168799619398433
-0.11645091797316733
-0.11609307504136164
-0.11580556084635031
-0.11558749759124878
-0.1154380019803633
-0.11535618521919179
-0.11534115301442383
-0.11539064062549946
-0.1154912030148037
-0.11562392167849014
-0.11576983529474821
-0.11590997704295974
-0.11602537460369657
-0.11609705015872261
-0.11610602039099305
-0.11603329648465427
-0.11585988412504439
-0.1155689770992885
-0.11516175218557387
-0.11464819483837256
-0.11403834549617727
-0.11334223909867187
-0.11257129911405528
-0.11173962922822055
-0.11085608910021301
-0.10992914598013301
-0.10896731704752055
-0.10797984308687474
-0.10698154833749154
-0.10599002209099705
-0.10502292230022499
-0.10409795684744534
-0.1032328835443689
-0.10244551013214294
-0.10175369428135396
-0.10117534359202707
-0.10072841559362433
-0.10042647042775839
-0.10024652807160161
-0.10014768000820994
-0.10008894294786717
-0.10002938353029266
-0.09992811832464714
-0.09974431382952845
-0.09943718647297087
-0.09896600261244988
-0.09829007853487856
-0.09737452991127235
-0.09623190360332944
-0.09489810923651808
-0.09340926893756739
-0.09180155476264497
-0.09011118869735298
-0.08837444265673565
-0.0866276384852757
-0.08490714795688992
-0.08324939277493905
-0.08168628709155425
-0.08021217491512933
-0.0788029145107965
-0.07743428412183197
-0.07608211192095408
-0.07472227601032023
-0.07333070442152101
-0.07188337511559155
-0.07035631598299949
-0.06872560484365502
-0.06697032247800644
-0.06509401578872138
-0.06311232827188545
-0.0610410382623765
-0.05889597402450575
-0.05669301375202929
-0.054448085568134685
-0.05217716752545325
-0.04989628760605451
-0.04762152372144067
-0.04536717700723371
-0.04313247009960077
-0.04090920091970019
-0.03868915950247384
-0.03646417973077516
-0.03422614503192859
-0.0319669887626969
-0.02967869420927448
-0.027353294587301062
-0.024982873041854252
-0.02256031915196643
-0.020084847987156724
-0.0175526844740696
-0.014961144871311245
-0.012317380166678799
-0.00962845199278374
-0.006901290265516978
-0.004142693184041381
-0.001359327230784734
0.0014422728285430437
0.004255421427306913
0.007071217231721142
0.009879727594104626
0.012671143254445839
0.015435786669453725
0.018164112012565087
0.020846705173951804
0.02347428376050408
0.02603769709584944
0.028527926220336047
0.03093708870738769
0.033265796806296245
0.03551894352822876
0.03770158347194645
0.039818902952944525
0.041876220003437784
0.043878984372376646
0.045832777525433695
0.047743312645009806
0.04961643463023844
0.051457075252779594
0.05326158753530768
0.05502212879673654
0.056730956752991196
0.058380460836728695
0.05996316219732967
0.06147171370090292
0.06289889993028869
0.06423763718505013
0.06548097348148307
0.06662254770672009
0.06765996457992687
0.06859286798322738
0.0694210473934015
0.07014442400395803
0.07076305072513402
0.07127711218389376
0.07168692472392964
0.07199293640566154
0.07219572700623776
0.07229562538188967
0.07228989165206054
0.0721743232504725
0.07194483766622971
0.07159748410516521
0.07112844348983853
0.07053402845953806
0.06981068337028057
0.0689549842948086
0.06796363902259431
0.066834298129915
0.065571539069017
0.06418346089604664
0.06267831930736407
0.061064501716060496
0.05935052725195562
0.05754504676159219
0.05565684280824551
0.05369471092837936
0.05166464454352866
0.04957535044850061
0.047428106681300736
0.04521938417193294
0.042945513763305014
0.0406027209610507
0.03818712593354125
0.03569474351188012
0.03312148318989615
0.03046314912415845
0.027715440133958942
0.024875738307373257
0.021956354988704206
0.01897701717975515
0.01595740242151299
0.012917082917697257
0.00987552553475209
0.006852091801862425
0.003866037910935933
0.0009365147166192672
-0.0019174322637096532
-0.004679016373513227
-0.007349688261023846
-0.009940086886367987
-0.01246102517436113
-0.014923422539252421
-0.01733830394338391
-0.01971680098656274
-0.022070151399319244
-0.024409698260785408
-0.026746889987355225
-0.029091977981974704
-0.03144433545694909
-0.033797931325025024
-0.0361467984757844
-0.03848507513607116
-0.04080700486999718
-0.043106936578948894
-0.04537932450157485
-0.04761872821379172
-0.04981981262879034
-0.051977426836999095
-0.054087191273883846
-0.056145166260594535
-0.058147519980004815
-0.06009052595226169
-0.06197056303477505
-0.06378411542222319
-0.06552777264655751
-0.06719822957699118
-0.0687922864200117
-0.07030742203898895
-0.0717460718302869
-0.07311321673614482
-0.07441396154480719
-0.07565351638178691
-0.07683719670986902
-0.07797042332910144
-0.07905872237680547
-0.08010772532756681
-0.08112316899323992
-0.08211042469394751
-0.08307097851932518
-0.08400441182623974
-0.08491039598394501
-0.08578870769896017
-0.08663922901507526
-0.08746194731334635
-0.08825695531209822
-0.08902445106692537
-0.08976473797068858
-0.09047830397421949
-0.09116641492394728
-0.09183078124171398
-0.09247322128632209
-0.09309565875384064
-0.09370012267760686
-0.09428666264138125
-0.09483499283889173
-0.09534741044457025
-0.09583382992166899
-0.09630367111282606
-0.09676386075111133
-0.0972199533315718
-0.09767726624858078
-0.09814088860732596
-0.09861568122380673
-0.09910627662483765
-0.09961707904804538
-0.10015226444186974
-0.10071578046556562
-0.10131222047803483
-0.10195339408469839
-0.10265464797859972
-0.10343112971581493
-0.10429775856323642
-0.10526922549856792
-0.10635999321032612
-0.10758429609784412
-0.10895614027126536
-0.11048930355154615
-0.11219680728141516
-0.1140869379892144
-0.11616547141559785
-0.11843793725013534
-0.12090963689320931
-0.12358564345602262
-0.12647080176058453
-0.1295697283397175
-0.13288681143706496
-0.13642621100707306
-0.14019076568111805
-0.14417374450773138
-0.14836454176759692
-0.15273458649542204
-0.15721711493401846
-0.16174240611435667
-0.16624080193650864
-0.17064270716962204
-0.17487858945194937
-0.17887897929082233
-0.18257655214521823
-0.18592186982812106
-0.1888746092951466
-0.19139458302835935
-0.19344166888898762
-0.19497580784751412
-0.19595700374351957
-0.1963453232856689
-0.1961008960517201
-0.1951839144885214
-0.19355397307526928
-0.19116506271832184
-0.1879683553385741
-0.18391506295581855
-0.17895646045892555
-0.17304388560586595
-0.1661287390237042
-0.15816248420857637
-0.14909664752572657
-0.1388828182094935
-0.12747092349234454
-0.11479613871139967
-0.10078456448275482
-0.08538280765229365
-0.06858814913786648
-0.050411231477004874
-0.030872814077897298
-0.010003773219349138
0.012154897949280883
0.03555208940794485
0.06012427898595362
0.08577808087359931
0.11239992186028548
0.1398660314876958
0.16804252242683212
0.19678539047808255
0.22594051457130104
0.25534365676562676
0.28482046224969193
0.31418645934143885
0.343248713267456
0.37181842387706415
0.3997039521790693
0.42670360069375257
0.4526055550708559
0.47718788408941676
0.500218539657949
0.5214553568142906
0.5406460537256734
0.5575282316887687
0.5718277314925732
0.5832460783443126
0.591529903056629
0.5966654161842748
0.5987050524862789
0.5977107100709448
0.5937537503958775
0.586914998267957
0.5772847418433651
0.5649627326275811
0.5500590972105401
0.5327013086391503
0.513030340181106
0.4911966611623793
0.46736020425823904
0.4416903654931793
0.4143660042410464
0.3855754432249821
0.3555164685173404
0.3243963295398686
0.2924331670284346
0.2598669522200061
0.226953461521954
0.1939579863332128
0.1611552814020929
0.12882956482619357
0.09727451805231886
0.06679328587667442
0.03762170369781457
0.009703729830799835
-0.01688840063233756
-0.04209422362876043
-0.06587362878812723
-0.08819467409007159
-0.10903348531836946
-0.12837425606080144
-0.14620924770930313
-0.1625387894598395
-0.1773712783124631
-0.19072317907134886
-0.20261713029692796
-0.21306737983218604
-0.22208778024476086
-0.22970018230029499
-0.23593450456854348
-0.24082873342332292
-0.2444289230425369
-0.2467891954081806
-0.247971740306321
-0.2480468153271137
-0.24709378423332662
-0.24520911666266265
-0.24248314780288727
-0.23895219696119752
-0.23471808680523076
-0.2298861191834414
-0.2245567349453567
-0.21882551377290926
-0.2127831760697962
-0.206515583062434
-0.20010206760204707
-0.19360255022302023
-0.18706458838083798
-0.18053081802145193
-0.1740390159135562
-0.16762209964853964
-0.16130812764052724
-0.15512029912636213
-0.14907695416558897
-0.14319157364048793
-0.13747557527173448
-0.1319599357901386
-0.12668338057235068
-0.12167988106526241
-0.11697854953849739
-0.1126036390843954
-0.10857454361800567
-0.10490579787710572
-0.10160707742219069
-0.09868319863646587
-0.09613118751802824
-0.09391756925354762
-0.09199075214242393
-0.0902941740870352
-0.08879597698777429
-0.08748369232730399
-0.08632615714000698
-0.08529265894955008
-0.08435293593479662
-0.08347717692979786
-0.08263803397269631
-0.0818262445797783
-0.08104212732530496
-0.08028652841201978
-0.07956074469785816
-0.07886652369594549
-0.07820606357460143
-0.07758201315733526
-0.07699747192285
-0.0764559900050398
-0.07596069585626684
-0.07550751200613412
-0.07508884201478304
-0.07469750646718319
-0.07432677660349762
-0.07397037431907984
-0.07362247216447608
-0.07327769334542471
-0.07293111172285455
-0.07257825181288784
-0.07221534889586324
-0.07184137572833946
-0.07145694297349903
-0.07106312205740827
-0.07066143506132683
-0.07025385472170631
-0.06984280443018877
-0.06943115823360947
-0.06902224083399548
-0.0686198275885645
-0.06822756689118885
-0.06784417754039873
-0.06745574036425513
-0.06705053225207061
-0.06662102475840777
-0.06615969659351055
-0.0656590336233027
-0.06511152886938577
-0.06450968250904356
-0.06384600187523683
-0.06311443882632906
-0.06232163177330041
-0.06148082714030804
-0.06060533525514191
-0.0597084736012721
-0.05880356681784627
-0.05790394669969436
-0.05702295219732328
-0.05617392941692185
-0.055370231620358625
-0.0546228486773248
-0.05392183137772869
-0.05324631815622773
-0.05257536026959358
-0.05188801613028062
-0.051163351306419524
-0.050380438521823744
-0.049518357655985945
-0.048556195744075714
-0.04747304697694551
-0.046251177093794706
-0.04490086653749278
-0.04344702354710845
-0.04191468088818422
-0.04032885677437845
-0.03871457357547616
-0.03709686081693825
-0.03550075517990936
-0.03395130050121362
-0.032473547773351076
-0.031089041941697895
-0.02978818814315386
-0.028545116830314608
-0.027333823581793898
-0.026128311131880383
-0.02490258937054653
-0.023630480032193625
-0.02228493541992853
-0.020840094497435138
-0.019270332181170968
-0.017553373409880665
-0.01569652104771042
-0.013722571207920486
-0.011654477464654967
-0.009515215238906735
-0.0073277817985294025
-0.005115196258233776
-0.002900499579580628
-0.000706754570991939
0.001442954112253388
0.003527910925745214
0.005548647176870874
0.007516820886234867
0.009444166422368675
0.011342396306948867
0.013223201214800742
0.015098249973887862
0.01697918956531862
0.018877645123350176
0.0208052199353759
0.022773012128138218
0.024787791456638966
0.026854045354059775
0.028976219400766168
0.031158737330260807
0.033406001029190106
0.03572239053735145
0.038112264047676994
0.04057995790625176
0.04312978661229812
0.04576372432782833
0.04846302995551101
0.051198063789186364
0.053939067549419815
0.05665626110992685
0.05931984249755843
0.06189998789231845
0.06436685162734787
0.06669056618893167
0.06884124221650514
0.07079483542701795
0.07257973225104328
0.07425190488531626
0.07586755037192618
0.0774828439061122
0.07915393883625103
0.08093696666386566
0.08288803704362666
0.08506323778334467
0.08751863484397214
0.09030231382103898
0.09339106659532055
0.09672409893968306
0.10024025750988402
0.10387836711482147
0.1075772307165475
0.11127562943025152
0.11491232252426326
0.11842604742006681
0.12175551969228084
0.12484549796376794
0.12769512406213981
0.13033223174808894
0.13278489197475019
0.13508115384839708
0.13724904462844714
0.1393165697274678
0.14131171271116177
0.14326243529838523
0.14519667736113073
0.1471397501511075
0.14909351969288412
0.15104745089430677
0.15299087460471902
0.15491309982661408
0.15680341371562198
0.15865108158052332
0.16044534688323778
0.16217543123882913
0.16383053441550974
0.16540089055681736
0.16688621871319087
0.16829212427030762
0.16962573722563698
0.1708929298361176
0.17209955992184486
0.1732515217591841
0.17435474499788617
0.17541519660260865
0.1764388811100086
0.17743083509189947
0.17838706689594588
0.17929881803565592
0.18015732363179257
0.18095385637711855
0.18167972653639763
0.18232628194639125
0.18288490801586033
0.18334702772556624
0.183704101628268
0.18394911218211146
0.18408848453837356
0.18413579516862366
0.18410472352243448
0.18400898662137646
0.18386233905902072
0.1836785730009371
0.1834715181846942
0.18325504191986144
0.18304304908800598
0.18284811968567874
0.18267054608778677
0.1825041086321909
0.18234256472470747
0.18217970934315006
0.18200937503733416
0.18182543192907272
0.18162178771217802
0.18139238765246352
0.18113121458774015
0.1808315570278371
0.1804801088997152
0.18006007255288958
0.1795546551533528
0.17894710143909232
0.17822069372009602
0.17735875187835345
0.1763446333678496
0.17516173321457235
0.17379348401650496
0.17222629686942711
0.17047331478805622
0.16856194257524607
0.16651975524877058
0.16437436539840491
0.16215342318591747
0.15988461634508205
0.1575956701816669
0.15531434757344262
0.15306844897018074
0.1508826863811873
0.1487533871296632
0.1466617504561001
0.14458887108619312
0.14251588131764437
0.14042395102014757
0.1382942876354015
0.13610813617710482
0.1338467792309486
0.1314915369546299
0.12902613003087626
0.12645583739166003
0.12379747432588999
0.12106800193177236
0.11828441887951992
0.11546376141134429
0.11262310334144893
0.10977955605604507
0.10695026851334177
0.1041524272435414
0.10140169386644805
0.09869951316265164
0.09603974075036299
0.09341619769379647
0.09082274262915846
0.08825327176466195
0.08570171888051921
0.0831620553289347
0.08062829003412164
0.07809446949228299
0.07555526046563393
0.07301069215007011
0.07046114968058498
0.06790429313390275
0.06534173243518658
0.06277514298139691
0.06020617508205687
0.05763645395923453
0.05506757974755854
0.05250112749421119
0.04993855216817525
0.047380414124042855
0.044826782127016754
0.04227770773431907
0.039733255892611175
0.0371934739440037
0.034658384143168144
0.03212798365732978
0.029602244566260788
0.02708111386229388
0.024564455852919456
0.02205158163053459
0.019541493468605925
0.017033165832201522
0.014525548098949424
0.012017564559031487
0.009508114415177404
0.006996071782676379
0.0044802856893714224
0.001959580075653843
-0.000566207667265559
-0.0030877264479330212
-0.005590518639703534
-0.008060102263449522
-0.010482020427495074
-0.012841841327604122
-0.015125158246987642
-0.017317589556308216
-0.019404778713666873
-0.021372394264618736
-0.023208290865956483
-0.02492023049690585
-0.026526710964841056
-0.028046358833724444
-0.029497825754963763
-0.030899788467417443
-0.03227094879738542
-0.03363003365861827
-0.03499579505230887
-0.03638701006709702
-0.037820706388054966
-0.03929758313522258
-0.04080954262416783
-0.04234842647625437
-0.04390610140028685
-0.04547445919252151
-0.04704541673665653
-0.04861091600383713
-0.050162924052657466
-0.05169343302915506
-0.05319417514679243
-0.054654276517935974
-0.05606146702361327
-0.0574034877480445
-0.05866810486289347
-0.059843109627270075
-0.0609163183877333
-0.06187557257828551
-0.06270873872037509
-0.06340370842290012
-0.06395125027813112
-0.06436853015949408
-0.06468700423983899
-0.06493829377161592
-0.06515404509472261
-0.06536592963650348
-0.06560564391174682
-0.06590490952268943
-0.06629547315901338
-0.06680910659784747
-0.06747369047667151
-0.06828085473944258
-0.06920260538904399
-0.07021077980372453
-0.07127724044917977
-0.07237387487855358
-0.07347227418641909
-0.07454160447438408
-0.07555280848342391
-0.07647737479224474
-0.07728956307055244
-0.07798939018626609
-0.07859084111396067
-0.07910803376341058
-0.07955508058829472
-0.07994608858619778
-0.08029515929860771
-0.08061638881091761
-0.08092386775242583
-0.08123168129633396
-0.08155269558281841
-0.08188849179529399
-0.08223451935711752
-0.08258616128438089
-0.08293879513707941
-0.08328779301911371
-0.08362852157828904
-0.08395634200631491
-0.08426661003880595
-0.08455467595528111
-0.0848163106431982
-0.08505124628343969
-0.08526136702468864
-0.08544857898403316
-0.08561480436083535
-0.08576196484374544
-0.08589197663798964
-0.08600675039077674
-0.08610819126946424
-0.08619819898531514
-0.08627854849512812
-0.08634989671745832
-0.08641228918166444
-0.08646575987742387
-0.0865103373383187
-0.08654604464183543
-0.0865728994093653
-0.0865909138062044
-0.08660009454155299
-0.08660044286851636
-0.08659194916424075
-0.0865745477179067
-0.08654813974993272
-0.08651262074614942
-0.08646788073629227
-0.08641380429400128
-0.08635027053682083
-0.08627715312620045
-0.08619432026749393
-0.08610163470995973
-0.08599941253685472
-0.08589225764345304
-0.08578711304374681
-0.08569094004949525
-0.08561069451636143
-0.08555332684391352
-0.08552578197562413
-0.08553499939887052
-0.08558791314493484
-0.08569145178900324
-0.08585109190546948
-0.08605874508531544
-0.08629890244523178
-0.08655597418111191
-0.08681436503275271
-0.08705847428385687
-0.08727269576203127
-0.08744141783878709
-0.08754902342954063
-0.08757988999361269
-0.08752047685253045
-0.08737683716594209
-0.08716575110492042
-0.08690410310517868
-0.08660877214633368
-0.08629663175190705
-0.08598454998932573
-0.08568938946992054
-0.08542800734892687
-0.0852172553254856
-0.08507190626918291
-0.0849872260632593
-0.0849477816510912
-0.08493802470492347
-0.08494240144090504
-0.0849453526190899
-0.08493131354343683
-0.08488471406180874
-0.0847901443215442
-0.08463250225942591
-0.0843984159482925
-0.08409455795294182
-0.08373862049652368
-0.08334840920059587
-0.0829417294084988
-0.08253638618535554
-0.0821501843180736
-0.0818009283153423
-0.08150642240763509
-0.08128447054720789
-0.08115073831439461
-0.0811007120994651
-0.08111878292793788
-0.08118922658142147
-0.08129631856330648
-0.08142433409876726
-0.08155754813476154
-0.08168023534002931
-0.08177667010509466
-0.08183112654226429
-0.08182976793609158
-0.08177661998726514
-0.08168554304144184
-0.08157049953072927
-0.08144545160901782
-0.08132436115198127
-0.08122118975707641
-0.08114989874354324
-0.08112444915240474
-0.08115880174646736
-0.08126471874091373
-0.0814331443523312
-0.0816435449973337
-0.08187526728086147
-0.08210765953172476
-0.0823200703427154
-0.08249184802841841
-0.08260234062520047
-0.08263089589121261
-0.08255686130638867
-0.08236260872432441
-0.08205920224749669
-0.08167354640849295
-0.08123271181250516
-0.08076376878650726
-0.08029378737925778
-0.07984983736129715
-0.07945898822494915
-0.07914830918432139
-0.07894486917530397
-0.07887234485029646
-0.07892218027415093
-0.07906800004356879
-0.0792832405159052
-0.07954133777029763
-0.07981572760766766
-0.08007984555071998
-0.08030712684394131
-0.08047100645360271
-0.08054491906775817
-0.08050541706947212
-0.08035873155495171
-0.08012752329456369
-0.07983462685779405
-0.07950287653591091
-0.07915510634196692
-0.07881415001079684
-0.07850284099901857
-0.078244012485034
-0.07806049736902718
-0.077972314568665
-0.07797265416018358
-0.0780398337452799
-0.07815201237583648
-0.0782873488255183
-0.078424001589774
-0.07854012888583545
-0.07861388865271669
-0.07862343855121628
-0.07854693596391489
-0.07836536185999053
-0.0780866684503584
-0.07773377945123974
-0.0773297783373048
-0.07689774830500685
-0.07646077227258347
-0.07604193288005419
-0.07566431248922191
-0.0753509931836734
-0.07512505676877772
-0.07500700853986683
-0.07499270507773566
-0.07506430182558124
-0.07520380684996944
-0.07539322793924873
-0.07561457260355131
-0.07584984807479249
-0.07608106130666997
-0.07629021897466591
-0.0764593274760439
-0.07657163300534328
-0.07662226638694157
-0.0766129733898022
-0.07654557084170505
-0.07642187529221263
-0.0762437030126712
-0.07601286999620965
-0.07573119195774014
-0.07540048433395835
-0.07502256228334257
-0.07460028183450104
-0.07414649422443677
-0.07367962153434511
-0.07321814590922214
-0.07278054921584841
-0.0723853130427857
-0.0720509187003807
-0.07179584722076193
-0.07163857935784153
-0.07159759558731504
-0.07168862163719453
-0.07190089348702616
-0.0722088624948503
-0.07258681890499322
-0.0730089743686538
-0.07344856622696154
-0.07387967573603216
-0.07427673322131537
-0.07461414852391085
-0.07486631100057158
-0.07501006050960692
-0.07504602042378485
-0.0749880972134024
-0.0748503184454524
-0.07464667186514047
-0.07439111856571759
-0.07409759875082693
-0.07378002918337298
-0.07345230482426841
-0.07312830014402089
-0.07282166848921418
-0.07254410656339204
-0.07230620703460591
-0.0721185301954205
-0.07199161585405209
-0.0719359833343692
-0.0719621314758917
-0.07208053863379123
-0.07230166267889085
-0.07263594099766546
-0.07309063334555989
-0.07364246042425562
-0.0742510198434588
-0.07487570022141969
-0.07547586969204281
-0.07601087590488383
-0.07644004602514859
-0.07672268673369603
-0.07681808422703677
-0.07668550421733247
-0.0762900945395585
-0.0756541381344638
-0.07483197096663174
-0.07387826357446248
-0.07284766601200739
-0.0717948078489719
-0.07077429817071051
-0.06984072557823004
-0.06904865818819053
-0.06845264363290164
-0.06810079759443291
-0.06797902564358582
-0.0680382670502694
-0.06822905206325532
-0.06850189044696935
-0.06880727148148942
-0.06909566396254163
-0.06931751620150767
-0.06942325602541893
-0.06936329077695816
-0.0690928634742386
-0.06861438119124381
-0.06795678062945762
-0.06714927447788582
-0.06622105494118372
-0.06520129373966167
-0.06411914210927858
-0.06300373080164609
-0.061884170084029744
-0.06078954973934246
-0.05974632295001008
-0.05875545937195278
-0.057803561008198126
-0.05687773660473194
-0.055967174159570074
-0.055058276014969376
-0.0541372000265859
-0.053190210501105506
-0.052203678196249395
-0.051164080320771424
-0.050058949095937805
-0.04888517157322152
-0.04764495933495851
-0.04634068918742012
-0.04497484438791041
-0.043550014644762436
-0.04206889611734535
-0.04053429141606114
-0.038949109602340375
-0.03731636618865146
-0.03563896178993329
-0.03391774162954764
-0.03215243598096236
-0.030342867752310307
-0.02848896630276129
-0.026590767442518058
-0.024648413432810545
-0.022662152985908467
-0.020632341265106793
-0.018559439884738637
-0.016444721570539736
-0.014296459555643242
-0.012126933823917864
-0.00994857511997522
-0.007773920639453516
-0.005615614029031672
-0.003486405386413184
-0.0013991512603397146
0.0006331853494138074
0.0025975349920459977
0.004483644708152107
0.006309801036377732
0.008110412447027898
0.009919963210044057
0.011772813551128487
0.013703210657207268
0.015745295252628657
0.017933101610712637
0.020300557553740575
0.02288148445296189
0.025704541284107874
0.028748644936079443
0.031964448327610154
0.03530217528859887
0.038711943197908674
0.0421437629833795
0.045547539121812336
0.0488730696389721
0.052070046109601247
0.055088053657400216
0.05788124105723334
0.060449577453691415
0.06281901444552722
0.06501569739466526
0.06706566521199116
0.068994850357358
0.0708290788395926
0.07259407021648115
0.0743154375947845
0.07601868763022601
0.07772638639808872
0.07943327143442197
0.08112034546735507
0.08276985880922554
0.08436419959896471
0.08588587711314224
0.08731752176597646
0.08864188510932479
0.08984183983268912
0.09090037976321781
0.09180213116777589
0.09254675530195633
0.09314252942077436
0.09359795050621261
0.09392163667789995
0.09412232719310669
0.09420888244674742
0.0941902839713804
0.09407563443720676
0.09387415765207188
0.09359422355047714
0.09323468496202081
0.09278901851220056
0.09225075789189838
0.09161355792963992
0.0908711945915924
0.09001756498156858
0.08904668734102486
0.08795270104905838
0.08672986662241355
0.08537335735332932
0.08388630675149986
0.08227644668225502
0.08055168255271729
0.0787200409076575
0.07678966942948412
0.07476883693825416
0.07266593339166752
0.07048946988506317
0.06824807865142832
0.06595035403575528
0.06360343406834414
0.061213675748835454
0.058787546610214444
0.056331635323116316
0.05385265169581943
0.05135742667423958
0.04885291234194206
0.04634618192013619
0.04384442976766761
0.04135410128534223
0.03887311717441188
0.03639456789163128
0.033911606585565586
0.03141750754241625
0.02890566618603585
0.02636959907791966
0.023802943917199886
0.02119945954066126
0.018553025922722635
0.01585866526428951
0.013121684674991923
0.010353340975068608
0.007565081212992817
0.004768473574881772
0.0019752073844886576
-0.0008108517431722412
-0.003592761061780544
-0.006362328239446213
-0.009111313141499343
-0.011831383753004288
-0.014512173296200094
-0.017142199634456283
-0.019710091326645033
-0.022204607134380463
-0.024614632924260332
-0.026929179508600503
-0.02913738634460823
-0.031228520782984867
-0.03319197495754435
-0.03501874773980161
